Vernier Format 2
pulsos.cmbl 05/05/20 14:46 .
Último
Tiempo	Fuerza
t	F
s	N

0	3.65456970455
0.1	4.73280478315
0.2	5.58191490755
0.3	6.22885595472
0.4	9.2479141748
0.5	18.2916108966
0.6	35.2872913231
0.7	40.4628197004
0.8	30.1252408843
0.9	8.60097312764
1	5.36626789183
1.1	4.30151075171
1.2	4.30151075171
1.3	5.79756192327
1.4	20.4346031153
1.5	38.5219965589
1.6	42.6058119191
1.7	37.8750555117
1.8	26.6883665712
1.9	14.6256116293
2	5.15062087611
2.1	3.65456970455
2.2	3.65456970455
2.3	4.73280478315
2.4	11.6200313477
2.5	16.5664347708
2.6	24.9631904454
2.7	30.3408879
2.8	28.1844177428
2.9	24.1006023826
3	23.2380143197
3.1	17.4290228337
3.2	6.87579700188
3.3	3.87021672027
3.4	3.43892268883
3.5	5.15062087611
3.6	9.2479141748
3.7	21.2971911782
3.8	32.9286520886
3.9	39.168937606
4	38.9532905903
4.1	29.0470058057
4.2	11.1887373163
4.3	4.93497386039
4.4	3.65456970455
4.5	3.22327567311
4.6	3.22327567311
4.7	6.66014998616
4.8	20.0033090839
4.9	30.1252408843
5	30.9878289471
5.1	30.1252408843
5.2	27.3218296799
5.3	15.0569056608
5.4	6.22885595472
5.5	4.30151075171
5.6	3.43892268883
5.7	3.00762865739
5.8	4.30151075171
5.9	32.4973580572
6	47.9969873121
6.1	47.7813402964
6.2	46.2718111863
6.3	42.6058119191
6.4	21.0815441625
6.5	5.79756192327
6.6	3.43892268883
6.7	3.00762865739
6.8	2.57633462595
6.9	2.79198164167
7	8.60097312764
7.1	19.3698459752
7.2	27.1061826642
7.3	27.3218296799
7.4	24.1006023826
7.5	14.4099646136
7.6	5.15062087611
7.7	3.22327567311
7.8	2.57633462595
7.9	2.57633462595
8	7.52273804904
8.1	25.1788374612
8.2	36.5811734174
8.3	41.1097607475
8.4	39.8158786532
8.5	36.7968204331
8.6	14.8412586451
8.7	3.87021672027
8.8	3.00762865739
8.9	2.79198164167
9	2.79198164167
9.1	3.22327567311
9.2	9.2479141748
9.3	25.6101314926
9.4	35.0716443073
9.5	39.6002316375
9.6	36.149879386
9.7	26.2570725398
9.8	12.6847884879
9.9	3.87021672027
10	2.36068761023
10.1	2.57633462595
10.2	2.36068761023
10.3	4.51715776743
10.4	15.9194937237
10.5	31.85041701
10.6	43.0371059505
10.7	41.541054779
10.8	17.8603168651
10.9	5.79756192327
11	2.79198164167
11.1	2.57633462595
11.2	2.57633462595
11.3	4.73280478315
11.4	12.2534944564
11.5	24.3162493983
11.6	35.2872913231
11.7	34.0068871672
11.8	21.7284852096
11.9	7.52273804904
12	4.08586373599
12.1	3.00762865739
12.2	2.57633462595
12.3	4.08586373599
12.4	13.5473765507
12.5	21.2971911782
12.6	30.7721819314
12.7	41.541054779
12.8	43.0371059505
12.9	38.0907025274
13	29.4782998371
13.1	13.9786705822
13.2	5.15062087611
13.3	3.87021672027
13.4	3.87021672027
13.5	4.73280478315
13.6	7.95403208048
13.7	17.6446698494
13.8	26.4727195555
13.9	29.0470058057
14	27.7531237113
14.1	25.6101314926
14.2	24.3162493983
14.3	14.6256116293
14.4	5.79756192327
14.5	3.65456970455
14.6	2.79198164167
14.7	6.013208939
14.8	20.2189560996
14.9	28.4000647585
15	34.0068871672
15.1	35.5029383388
15.2	34.0068871672
15.3	32.7130050729
15.4	15.0569056608
15.5	5.15062087611
15.6	3.87021672027
15.7	3.43892268883
15.8	4.08586373599
15.9	14.8412586451
16	25.6101314926
16.1	32.2817110415
16.2	35.0716443073
16.3	34.2090562445
16.4	32.0660640257
16.5	25.8257785083
16.6	12.6847884879
16.7	5.15062087611
16.8	3.87021672027
16.9	3.43892268883
17	3.87021672027
17.1	16.3507877551
17.2	31.4191229786
17.3	34.8559972916
17.4	35.0716443073
17.5	35.0716443073
17.6	33.5755931358
17.7	18.9385519437
17.8	6.013208939
17.9	3.43892268883
18	3.22327567311
18.1	3.43892268883
18.2	6.66014998616
18.3	23.6693083511
18.4	30.5565349157
18.5	31.6347699943
18.6	31.2034759629
18.7	30.9878289471
18.8	27.5374766956
18.9	21.5128381939
19	10.9730903006
19.1	4.93497386039
19.2	3.65456970455
19.3	3.65456970455
19.4	3.65456970455
19.5	3.87021672027
19.6	4.08586373599
19.7	4.30151075171
19.8	4.30151075171
19.9	4.51715776743
20	4.51715776743
20.1	4.51715776743
20.2	4.51715776743
20.3	4.73280478315
20.4	4.51715776743
20.5	4.51715776743
20.6	4.51715776743
20.7	4.51715776743
20.8	4.08586373599
20.9	3.43892268883
21	2.57633462595
21.1	2.36068761023
21.2	2.36068761023
21.3	2.36068761023
21.4	2.36068761023
21.5	2.36068761023
21.6	2.36068761023
21.7	8.1696790962
21.8	49.7086854994
21.9	77.0554226805
22	84.8052373079
22.1	93.4041620598
22.2	93.6198090755
22.3	88.0264646052
22.4	49.9243325151
22.5	12.9004355036
22.6	5.15062087611
22.7	3.43892268883
22.8	2.57633462595
22.9	2.79198164167
23	3.22327567311
23.1	4.93497386039
23.2	21.7284852096
23.3	67.7960789429
23.4	73.3894234132
23.5	77.0554226805
23.6	79.1984148992
23.7	82.2174731193
23.8	78.3358268363
23.9	57.2428531111
24	20.4346031153
24.1	5.36626789183
24.2	3.22327567311
24.3	1.92939357879
24.4	1.28245253162
24.5	1.49809954735
24.6	1.71374656307
24.7	2.79198164167
24.8	4.30151075171
24.9	13.1160825193
25	64.3457266914
25.1	91.4768168568
25.2	99.0109844685
25.3	92.1237579039
25.4	68.8743140216
25.5	15.4881996922
25.6	4.51715776743
25.7	2.57633462595
25.8	1.49809954735
25.9	1.0668055159
26	0.851158500183
26.1	1.28245253162
26.2	1.28245253162
26.3	2.14504059451
26.4	13.5473765507
26.5	60.2619113312
26.6	81.3548850564
26.7	76.624128649
26.8	70.1681961159
26.9	56.595912064
27	13.7630235665
27.1	5.36626789183
27.2	3.65456970455
27.3	3.00762865739
27.4	2.57633462595
27.5	2.57633462595
27.6	2.79198164167
27.7	3.22327567311
27.8	6.22885595472
27.9	12.0513253792
28	23.022367304
28.1	59.3993232683
28.2	82.2174731193
28.3	85.0208843236
28.4	85.2365313394
28.5	80.0610029621
28.6	55.7468019396
28.7	16.1351407394
28.8	4.51715776743
28.9	3.00762865739
29	3.00762865739
29.1	3.22327567311
29.2	3.22327567311
29.3	3.00762865739
29.4	3.22327567311
29.5	3.00762865739
29.6	3.22327567311
29.7	3.00762865739
29.8	3.00762865739
29.9	4.73280478315
30	38.7376435746
30.1	77.4867167119
30.2	82.8644141664
30.3	79.8453559463
30.4	78.9827678835
30.5	76.1928346176
30.6	39.168937606
30.7	7.73838506476
30.8	4.93497386039
30.9	4.51715776743
31	4.30151075171
31.1	4.08586373599
31.2	3.87021672027
31.3	3.65456970455
31.4	3.65456970455
31.5	3.43892268883
31.6	3.43892268883
31.7	6.87579700188
31.8	35.7185853545
31.9	66.2865498329
32	68.8743140216
32.1	68.0117259587
32.2	68.6586670058
32.3	70.815137163
32.4	73.8207174446
32.5	73.8207174446
32.6	39.6002316375
32.7	9.03226715908
32.8	3.87021672027
32.9	2.79198164167
33	2.79198164167
33.1	2.79198164167
33.2	3.00762865739
33.3	3.22327567311
33.4	3.65456970455
33.5	3.87021672027
33.6	5.15062087611
33.7	36.7968204331
33.8	77.0554226805
33.9	94.0511031069
34	95.560632217
34.1	99.2266314842
34.2	93.1885150441
34.3	53.1590377509
34.4	15.2725526765
34.5	5.58191490755
34.6	4.08586373599
34.7	3.65456970455
34.8	3.43892268883
34.9	3.43892268883
35	3.22327567311
35.1	3.22327567311
35.2	3.22327567311
35.3	3.22327567311
35.4	3.22327567311
35.5	4.08586373599
35.6	40.8941137318
35.7	80.9235910249
35.8	99.4422784999
35.9	106.54515208
36	101.153976687
36.1	97.9327493899
36.2	52.5120967038
36.3	9.89485522197
36.4	4.73280478315
36.5	3.87021672027
36.6	3.43892268883
36.7	3.43892268883
36.8	3.22327567311
36.9	3.22327567311
37	3.22327567311
37.1	3.22327567311
37.2	3.22327567311
37.3	3.22327567311
37.4	10.5417962691
37.5	55.3155079081
37.6	84.1582962607
37.7	80.0610029621
37.8	78.9827678835
37.9	76.4084816333
38	41.1097607475
38.1	8.60097312764
38.2	5.15062087611
38.3	4.08586373599
38.4	3.65456970455
38.5	3.65456970455
38.6	3.43892268883
38.7	3.43892268883
38.8	3.43892268883
38.9	3.43892268883
39	3.43892268883
39.1	3.43892268883
39.2	3.43892268883
39.3	3.43892268883
39.4	3.43892268883
39.5	3.43892268883
39.6	3.43892268883
39.7	3.43892268883
39.8	3.43892268883
39.9	3.43892268883
40	3.43892268883
40.1	3.43892268883
40.2	3.43892268883
40.3	3.43892268883
40.4	3.65456970455
40.5	3.43892268883
40.6	3.43892268883
40.7	3.43892268883
40.8	3.43892268883
40.9	3.43892268883
41	3.43892268883
41.1	3.43892268883
41.2	3.43892268883
41.3	3.65456970455
41.4	3.43892268883
41.5	2.79198164167
41.6	3.00762865739
41.7	3.22327567311
41.8	3.00762865739
41.9	3.00762865739
42	2.57633462595
42.1	2.57633462595
42.2	6.44450297044
42.3	57.0272060954
42.4	107.407740143
42.5	116.006664895
42.6	117.947488036
42.7	126.344243711
42.8	123.972126538
42.9	66.9334908801
43	21.2971911782
43.1	7.73838506476
43.2	3.87021672027
43.3	3.00762865739
43.4	3.00762865739
43.5	2.79198164167
43.6	2.57633462595
43.7	3.00762865739
43.8	11.6200313477
43.9	101.800917734
44	139.471755793
44.1	142.922108045
44.2	143.13775506
44.3	140.334343856
44.4	136.897469543
44.5	77.7023637276
44.6	21.5128381939
44.7	7.0914440176
44.8	4.08586373599
44.9	3.43892268883
45	3.22327567311
45.1	2.79198164167
45.2	2.57633462595
45.3	2.57633462595
45.4	25.6101314926
45.5	114.941907755
45.6	131.290647134
45.7	118.163135052
45.8	121.182193272
45.9	122.462597428
46	115.144076832
46.1	77.7023637276
46.2	17.4290228337
46.3	4.93497386039
46.4	3.22327567311
46.5	3.00762865739
46.6	2.57633462595
46.7	2.57633462595
46.8	3.22327567311
46.9	3.65456970455
47	36.5811734174
47.1	117.516194005
47.2	127.42247879
47.3	130.643706087
47.4	134.094058339
47.5	137.962226683
47.6	128.285066853
47.7	96.4232202799
47.8	18.5072579123
47.9	4.73280478315
48	3.22327567311
48.1	3.00762865739
48.2	2.79198164167
48.3	2.79198164167
48.4	2.57633462595
48.5	3.22327567311
48.6	12.9004355036
48.7	95.9919262484
48.8	122.462597428
48.9	129.363301931
49	137.746579667
49.1	141.196931919
49.2	142.922108045
49.3	143.13775506
49.4	136.03488148
49.5	74.8989525232
49.6	20.650250131
49.7	5.15062087611
49.8	3.22327567311
49.9	2.57633462595
50	2.57633462595
50.1	3.00762865739
50.2	2.57633462595
50.3	2.36068761023
50.4	33.5755931358
50.5	108.472497283
50.6	118.810076099
50.7	127.42247879
50.8	129.781118024
50.9	133.447117291
51	135.172293417
51.1	132.800176244
51.2	84.5895902922
51.3	21.5128381939
51.4	6.013208939
51.5	3.43892268883
51.6	3.00762865739
51.7	2.79198164167
51.8	2.57633462595
51.9	2.36068761023
52	2.36068761023
52.1	12.4691414721
52.2	97.5014553585
52.3	113.648025661
52.4	113.001084613
52.5	113.432378645
52.6	114.726260739
52.7	113.648025661
52.8	109.335085346
52.9	63.6987856443
53	13.5473765507
53.1	4.30151075171
53.2	2.57633462595
53.3	2.36068761023
53.4	1.92939357879
53.5	1.92939357879
53.6	1.92939357879
53.7	1.71374656307
53.8	1.71374656307
53.9	1.0668055159
54	1.28245253162
54.1	4.51715776743
54.2	80.7079440092
54.3	109.766379378
54.4	114.941907755
54.5	116.869252958
54.6	126.559890727
54.7	131.721941166
54.8	138.393520714
54.9	109.982026393
55	28.1844177428
55.1	7.95403208048
55.2	4.08586373599
55.3	3.65456970455
55.4	3.22327567311
55.5	3.22327567311
55.6	2.79198164167
55.7	3.00762865739
55.8	3.00762865739
55.9	3.00762865739
56	3.22327567311
56.1	3.22327567311
56.2	22.5910732725
56.3	113.001084613
56.4	115.791017879
56.5	112.354143566
56.6	110.844614456
56.7	111.060261472
56.8	111.922849535
56.9	114.941907755
57	89.3203466996
57.1	18.9385519437
57.2	4.93497386039
57.3	3.00762865739
57.4	2.79198164167
57.5	2.36068761023
57.6	2.36068761023
57.7	2.79198164167
57.8	31.6347699943
57.9	106.976446112
58	106.329505065
58.1	103.52609386
58.2	114.294966708
58.3	123.109538475
58.4	128.716360884
58.5	126.344243711
58.6	71.4486002717
58.7	17.6446698494
58.8	3.65456970455
58.9	2.57633462595
59	2.57633462595
59.1	2.36068761023
59.2	2.36068761023
59.3	2.14504059451
59.4	2.36068761023
59.5	2.36068761023
59.6	2.36068761023
59.7	2.36068761023
59.8	2.36068761023
59.9	2.36068761023
60	2.36068761023
