Vernier Format 2
rest_spirom3.cmbl 10/05/20 16:24 .
Último
Tiempo	Rapidez flujo	Volumen
t	Flujo	Vol
s	L/s	L

0.01	-0.717086378238	-0
0.02	-0.726607862845	0.00721847120542
0.03	-0.726607862845	0.0144845498339
0.04	-0.717086378238	0.0217030210393
0.05	-0.717086378238	0.0288738848217
0.06	-0.717086378238	0.036044748604
0.07	-0.698043409022	0.0431203975403
0.08	-0.688521924414	0.0500532242075
0.09	-0.688521924414	0.0569384434517
0.1	-0.679000439806	0.0637760552728
0.11	-0.679000439806	0.0705660596708
0.12	-0.660552563379	0.0772638246867
0.13	-0.660552563379	0.0838693503205
0.14	-0.669478955198	0.0905195079134
0.15	-0.669478955198	0.0972142974654
0.16	-0.669478955198	0.103909087017
0.17	-0.669478955198	0.110603876569
0.18	-0.651031078771	0.117206426739
0.19	-0.651031078771	0.123716737527
0.2	-0.622466624947	0.130084226046
0.21	-0.622466624947	0.136308892295
0.22	-0.622466624947	0.142533558544
0.23	-0.593902171124	0.148615402525
0.24	-0.574859201908	0.15445920939
0.25	-0.498687325045	0.159826942025
0.26	-0.470122871222	0.164670993006
0.27	-0.451079902006	0.169277006872
0.28	-0.441558417398	0.173740198469
0.29	-0.441558417398	0.178155782643
0.3	-0.441558417398	0.182571366817
0.31	-0.441558417398	0.186986950991
0.32	-0.470122871222	0.191545357434
0.33	-0.460601386614	0.196198978723
0.34	-0.460601386614	0.20080499259
0.35	-0.451079902006	0.205363399033
0.36	-0.441558417398	0.20982659063
0.37	-0.422515448183	0.214146959958
0.38	-0.412993963575	0.218324507016
0.39	-0.393950994359	0.222359231806
0.4	-0.365386540536	0.226155919481
0.41	-0.355865055928	0.229762177463
0.42	-0.34634357132	0.233273220599
0.43	-0.34634357132	0.236736656312
0.44	-0.34634357132	0.240200092025
0.45	-0.355865055928	0.243711135162
0.46	-0.34634357132	0.247222178298
0.47	-0.34634357132	0.250685614011
0.48	-0.34634357132	0.254149049724
0.49	-0.34634357132	0.257612485438
0.5	-0.355865055928	0.261123528574
0.51	-0.355865055928	0.264682179133
0.52	-0.355865055928	0.268240829692
0.53	-0.384429509751	0.271942302521
0.54	-0.365386540536	0.275691382772
0.55	-0.374908025144	0.279392855601
0.56	-0.365386540536	0.283094328429
0.57	-0.365386540536	0.286748193834
0.58	-0.355865055928	0.290354451817
0.59	-0.374908025144	0.294008317222
0.6	-0.365386540536	0.29770979005
0.61	-0.374908025144	0.301411262879
0.62	-0.374908025144	0.30516034313
0.63	-0.374908025144	0.308909423382
0.64	-0.384429509751	0.312706111056
0.65	-0.384429509751	0.316550406154
0.66	-0.393950994359	0.320442308674
0.67	-0.403472478967	0.324429426041
0.68	-0.384429509751	0.328368935984
0.69	-0.384429509751	0.332213231082
0.7	-0.384429509751	0.33605752618
0.71	-0.384429509751	0.339901821277
0.72	-0.393950994359	0.343793723798
0.73	-0.374908025144	0.347638018895
0.74	-0.327895694893	0.351152037495
0.75	-0.299331241069	0.354288172175
0.76	-0.270766787246	0.357138662317
0.77	-0.270766787246	0.359846330189
0.78	-0.270766787246	0.362553998062
0.79	-0.299331241069	0.365404488203
0.8	-0.308852725677	0.368445408037
0.81	-0.336822086712	0.371673782099
0.82	-0.327895694893	0.374997371007
0.83	-0.308852725677	0.37818111311
0.84	-0.289809756461	0.38117442552
0.85	-0.261245302638	0.383929700816
0.86	-0.232680848814	0.386399331573
0.87	-0.185073425775	0.388488102946
0.88	-0.146987487344	0.390148407512
0.89	-0.0898585796967	0.391332637847
0.9	-0.0422511566576	0.391993186529
0.91	0.00476117359358	0.392180636444
0.92	0.0714115658484	0.391799772747
0.93	0.10949750428	0.390895227396
0.94	0.176147896535	0.389467000392
0.95	0.233276804182	0.387419876888
0.96	0.290405711828	0.384801464308
0.97	0.33741804208	0.381662345539
0.98	0.394546949727	0.37800252058
0.99	0.413589918942	0.373961836236
1	0.461197341981	0.369587899932
1.01	0.480240311197	0.364880711666
1.02	0.508804765021	0.359935486285
1.03	0.527847734236	0.354752223789
1.04	0.575455157275	0.349235709331
1.05	0.604019611099	0.343338335489
1.06	0.641510456742	0.33711068515
1.07	0.698639364389	0.330409936044
1.08	0.736725302821	0.323233112708
1.09	0.793854210468	0.315580215142
1.1	0.803375695075	0.307594065614
1.11	0.850983118115	0.299322271548
1.12	0.841461633507	0.29086004779
1.13	0.879547571938	0.282255001763
1.14	0.879547571938	0.273459526043
1.15	0.908112025762	0.264521228055
1.16	0.908112025762	0.255440107797
1.17	0.908112025762	0.24635898754
1.18	0.908112025762	0.237277867282
1.19	0.936676479585	0.228053924755
1.2	0.936676479585	0.21868715996
1.21	0.974167325228	0.209132940935
1.22	0.974167325228	0.199391267683
1.23	0.974167325228	0.189649594431
1.24	1.01225326366	0.179717491486
1.25	1.03129623288	0.169499744004
1.26	1.0598606867	0.159043959406
1.27	1.05033920209	0.148492959962
1.28	1.0598606867	0.137941960518
1.29	1.05033920209	0.127390961074
1.3	1.04081771748	0.116935176476
1.31	1.03129623288	0.106574606724
1.32	1.04081771748	0.0962140369725
1.33	1.03129623288	0.0858534672207
1.34	1.00273177905	0.0756833271611
1.35	1.03129623288	0.0655131871014
1.36	1.02177474827	0.0552478321957
1.37	1.04081771748	0.0449348698669
1.38	1.02177474827	0.0346219075382
1.39	1.01225326366	0.0244517674785
1.4	1.02177474827	0.0142816274189
1.41	1.02177474827	0.00406387993619
1.42	1.01225326366	-0.00610626012346
1.43	0.983688809836	-0.0160859704909
1.44	0.993210294444	-0.0259704660123
1.45	0.974167325228	-0.0358073541107
1.46	0.974167325228	-0.045549027363
1.47	0.964645840621	-0.0552430931922
1.48	0.955719448801	-0.0648449196393
1.49	0.946197964193	-0.0743545067043
1.5	0.946197964193	-0.0838164863462
1.51	0.927154994977	-0.0931832511421
1.52	0.908112025762	-0.102359586246
1.53	0.917633510369	-0.111488313926
1.54	0.936676479585	-0.120759863876
1.55	0.936676479585	-0.130126628672
1.56	0.927154994977	-0.139445786045
1.57	0.946197964193	-0.148812550841
1.58	0.936676479585	-0.15822692306
1.59	0.936676479585	-0.167593687855
1.6	0.936676479585	-0.176960452651
1.61	0.927154994977	-0.186279610024
1.62	0.927154994977	-0.195551159974
1.63	0.927154994977	-0.204822709924
1.64	0.898590541154	-0.213951437604
1.65	0.879547571938	-0.22284212817
1.66	0.87002608733	-0.231589996466
1.67	0.879547571938	-0.240337864762
1.68	0.850983118115	-0.248990518213
1.69	0.850983118115	-0.257500349394
1.7	0.812897179683	-0.265819750883
1.71	0.850983118115	-0.274139152372
1.72	0.841461633507	-0.28260137613
1.73	0.78433272586	-0.290730347927
1.74	0.755768272036	-0.298430852916
1.75	0.736725302821	-0.305893320791
1.76	0.727203818213	-0.313212966396
Vernier Format 2
rest_spirom3.cmbl 10/05/20 16:24 .
Latest
Tiempo	Rapidez flujo	Volumen
t	Flujo	Vol
s	L/s	L

0	-0.0541530124174	-0
0.01	-0.0541530124174	0.000541530124174
0.02	-0.0446315278095	0.00103545282531
0.03	-0.0446315278095	0.0014817681034
0.04	-0.0446315278095	0.0019280833815
0.05	-0.0351100432017	0.00232679123655
0.06	-0.0351100432017	0.00267789166857
0.07	-0.0446315278095	0.00307659952363
0.08	-0.0351100432017	0.00347530737868
0.09	-0.0351100432017	0.0038264078107
0.1	-0.0351100432017	0.00417750824272
0.11	-0.0446315278095	0.00457621609777
0.12	-0.0351100432017	0.00497492395283
0.13	-0.0541530124174	0.00542123923093
0.14	-0.0446315278095	0.00591516193206
0.15	-0.0351100432017	0.00631386978712
0.16	-0.0541530124174	0.00676018506521
0.17	-0.0446315278095	0.00725410776635
0.18	-0.0446315278095	0.00770042304444
0.19	-0.0636744970252	0.00824195316861
0.2	-0.0351100432017	0.00873587586975
0.21	-0.0351100432017	0.00908697630177
0.22	-0.0255885585939	0.00939046931074
0.23	-0.00654558937822	0.0095511400506
0.24	0.00297589522961	0.00956898852135
0.25	0.00297589522961	0.00953922956905
0.26	0.00297589522961	0.00950947061675
0.27	0.00297589522961	0.00947971166446
0.28	0.00297589522961	0.00944995271216
0.29	0.00297589522961	0.00942019375987
0.3	0.00297589522961	0.00939043480757
0.31	0.0124973798374	0.00931306843224
0.32	0.00297589522961	0.0092357020569
0.33	0.00297589522961	0.0092059431046
0.34	-0.00654558937822	0.00922379157535
0.35	-0.0160670739861	0.00933685489217
0.36	-0.0160670739861	0.00949752563203
0.37	-0.0255885585939	0.00970580379493
0.38	-0.0255885585939	0.00996168938087
0.39	-0.0351100432017	0.0102651823898
0.4	-0.0351100432017	0.0106162828219
0.41	-0.0446315278095	0.0110149906769
0.42	-0.0636744970252	0.0115565208011
0.43	-0.0636744970252	0.0121932657713
0.44	-0.0446315278095	0.0127347958955
0.45	-0.0446315278095	0.0131811111736
0.46	-0.0541530124174	0.0136750338747
0.47	-0.0446315278095	0.0141689565759
0.48	-0.0446315278095	0.014615271854
0.49	-0.0446315278095	0.0150615871321
0.5	-0.0351100432017	0.0154602949871
0.51	-0.0446315278095	0.0158590028422
0.52	-0.0446315278095	0.0163053181203
0.53	-0.0446315278095	0.0167516333984
0.54	-0.0351100432017	0.0171503412534
0.55	-0.0446315278095	0.0175490491085
0.56	-0.0446315278095	0.0179953643866
0.57	-0.0446315278095	0.0184416796647
0.58	-0.0351100432017	0.0188403875197
0.59	-0.0446315278095	0.0192390953748
0.6	-0.0446315278095	0.0196854106529
0.61	-0.0446315278095	0.020131725931
0.62	-0.0636744970252	0.0206732560552
0.63	-0.0827174662409	0.0214052158715
0.64	-0.0922389508487	0.0222799979569
0.65	-0.111281920064	0.0232976023115
0.66	-0.111281920064	0.0244104215121
0.67	-0.1392512811	0.025663087518
0.68	-0.148772765708	0.027103207752
0.69	-0.148772765708	0.0285909354091
0.7	-0.167815734923	0.0301738779122
0.71	-0.186858704139	0.0319472501075
0.72	-0.186858704139	0.0338158371489
0.73	-0.215423157963	0.0358272464594
0.74	-0.215423157963	0.0379814780391
0.75	-0.234466127178	0.0402309244648
0.76	-0.243987611786	0.0426231931596
0.77	-0.253509096394	0.0451106767005
0.78	-0.272552065609	0.0477409825105
0.79	-0.301116519433	0.0506093254357
0.8	-0.320159488649	0.0537157054761
0.81	-0.329680973256	0.0569649077857
0.82	-0.320159488649	0.0602141100952
0.83	-0.301116519433	0.0633204901356
0.84	-0.291595034825	0.0662840479069
0.85	-0.272552065609	0.069104783409
0.86	-0.253509096394	0.0717350892191
0.87	-0.234466127178	0.0741749653369
0.88	-0.234466127178	0.0765196266087
0.89	-0.22494464257	0.0788166804574
0.9	-0.215423157963	0.0810185194601
0.91	-0.215423157963	0.0831727510397
0.92	-0.22494464257	0.0853745900424
0.93	-0.215423157963	0.0875764290451
0.94	-0.215423157963	0.0897306606247
0.95	-0.22494464257	0.0919324996274
0.96	-0.215423157963	0.09413433863
0.97	-0.215423157963	0.0962885702097
0.98	-0.205901673355	0.0983951943662
0.99	-0.196380188747	0.100406603677
1	-0.196380188747	0.102370405564
1.01	-0.177337219531	0.104238992606
1.02	-0.177337219531	0.106012364801
1.03	-0.167815734923	0.107738129573
1.04	-0.167815734923	0.109416286922
1.05	-0.148772765708	0.110999229426
1.06	-0.148772765708	0.112486957083
1.07	-0.167815734923	0.114069899586
1.08	-0.177337219531	0.115795664358
1.09	-0.177337219531	0.117569036553
1.1	-0.205901673355	0.119485231018
1.11	-0.253509096394	0.121782284867
1.12	-0.339202457864	0.124745842638
1.13	-0.453460273158	0.128709156293
1.14	-0.614730418703	0.134050109752
1.15	-0.786117141644	0.141054347554
1.16	-0.956908771797	0.149769477121
1.17	-1.13781697935	0.160243105877
1.18	-1.31813009411	0.172522841244
1.19	-1.48951681705	0.1865610758
1.2	-1.71743735485	0.20259584666
1.21	-1.86978110857	0.220531938977
1.22	-2.0120082849	0.239940885944
1.23	-2.16435203863	0.260822687562
1.24	-2.29705773035	0.283129736407
1.25	-2.354186638	0.306385958248
1.26	-2.37322960721	0.330023039474
1.27	-2.45892296868	0.354183802354
1.28	-2.53509484555	0.379153891425
1.29	-2.52557336094	0.404457232457
1.3	-2.5916286604	0.430043242564
1.31	-2.61067162962	0.456054744014
1.32	-2.64875756805	0.482351890003
1.33	-2.66780053727	0.508934680529
1.34	-2.75349389874	0.536041152709
1.35	-2.77253686795	0.563671306543
1.36	-2.77253686795	0.591396675222
1.37	-2.74397241413	0.618979221633
1.38	-2.71540796031	0.646276123505
1.39	-2.71540796031	0.673430203108
1.4	-2.74397241413	0.70072710498
1.41	-2.74397241413	0.728166829121
1.42	-2.65827905266	0.755178086455
1.43	-2.67732202187	0.781856091828
1.44	-2.71540796031	0.808819741739
1.45	-2.64875756805	0.835640569381
1.46	-2.61067162962	0.861937715369
1.47	-2.63923608344	0.888187253934
1.48	-2.61067162962	0.9144367925
1.49	-2.62971459884	0.940638723642
1.5	-2.60115014501	0.966793047361
1.51	-2.57258569119	0.992661726542
1.52	-2.51605187633	1.01810491438
1.53	-2.45892296868	1.0429797886
1.54	-2.45892296868	1.06756901829
1.55	-2.4779659379	1.09225346282
1.56	-2.46844445329	1.11698551478
1.57	-2.42083703025	1.1414319222
1.58	-2.34466515339	1.16525943312
1.59	-2.27801476113	1.18837283269
1.6	-2.23040733809	1.21091494319
1.61	-2.11674461559	1.23265070295
1.62	-2.06913719255	1.25358011199
1.63	-2.0120082849	1.27398583938
1.64	-1.93583640804	1.29372506285
1.65	-1.888228985	1.31284538981
1.66	-1.80313071632	1.33130218832
1.67	-1.73648032406	1.34900024352
1.68	-1.6603084472	1.36598418738
1.69	-1.58413657034	1.38220641246
1.7	-1.47047384783	1.39747946455
1.71	-1.35621603254	1.41161291396
1.72	-1.21339376342	1.42446096294
1.73	-1.05212361788	1.43578854984
1.74	-0.852172441111	1.44531003014
1.75	-0.624251903311	1.45269215186
1.76	-0.339202457864	1.45750942367
1.77	-0.0160670739861	1.45928577132
1.78	0.345154248324	1.45764033545
1.79	0.696854086025	1.45243029378
1.8	1.0199894699	1.443846076
1.81	1.21994064667	1.43264642542
1.82	1.27647446153	1.42016434988
1.83	1.51451157672	1.40620941969
1.84	1.67578172227	1.39025795319
1.85	1.82812547599	1.3727384172
1.86	1.94238329129	1.35388587336
1.87	2.03700304458	1.33398894168
1.88	2.13221789066	1.31314283701
1.89	2.17982531369	1.29158262099
1.9	2.22743273673	1.26954633073
1.91	2.30300952081	1.24689411945
1.92	2.34109545924	1.22367359455
1.93	2.34109545924	1.20026263995
1.94	2.34109545924	1.17685168536
1.95	2.36013842846	1.15334551592
1.96	2.34109545924	1.12983934649
1.97	2.36965991306	1.10628556962
1.98	2.43631030532	1.08225571853
1.99	2.43631030532	1.05789261548
2	2.32205249002	1.0341008015
2.01	2.36965991306	1.01064223949
2.02	2.28456164438	0.987371131699
2.03	2.26551867517	0.964620730101
2.04	2.26551867517	0.94196554335
2.05	2.24647570595	0.919405571444
2.06	2.17982531369	0.897274066346
2.07	2.1893467983	0.875428205786
2.08	2.17982531369	0.853582345226
2.09	2.14173937526	0.831974521781
2.1	2.0655674984	0.810937987413
2.11	2.04652452919	0.790377527275
2.12	2.02748155997	0.770007496829
2.13	1.97987413693	0.749970718345
2.14	1.90429735286	0.730549860896
2.15	1.87573289903	0.711649709636
2.16	1.84716844521	0.693035202915
2.17	1.80908250678	0.674753948155
2.18	1.76147508374	0.656901160203
2.19	1.78051805295	0.639191194519
2.2	1.75195359913	0.621528836259
2.21	1.72338914531	0.604152122536
2.22	1.69482469148	0.587061053353
2.23	1.67578172227	0.570208021284
2.24	1.62817429923	0.553688241176
2.25	1.58116196898	0.537641559835
2.26	1.56211899976	0.521925154992
2.27	1.49546860751	0.506637216955
2.28	1.47642563829	0.491777745726
2.29	1.38121079221	0.477489563574
2.3	1.33360336917	0.463915492767
2.31	1.30503891535	0.450722281344
2.32	1.28599594613	0.437767107037
2.33	1.23898361588	0.425142209227
2.34	1.21041916206	0.412895195337
2.35	1.18185470824	0.400933825986
2.36	1.15329025441	0.389258101172
2.37	1.1342472852	0.377820413474
2.38	1.10568283137	0.366620762891
2.39	1.06759689294	0.35575436427
2.4	1.02951095451	0.345268825033
2.41	0.99142501608	0.33516414518
2.42	0.953339077649	0.325440324711
2.43	0.915253139217	0.316097363627
2.44	0.858719324358	0.307227501309
2.45	0.801590416711	0.298925952603
2.46	0.744461509064	0.291195692975
2.47	0.658768147594	0.284179544691
2.48	0.582596270731	0.2779727226
2.49	0.497498002049	0.272572251236
2.5	0.392761671363	0.268120952869
2.51	0.288025340677	0.264717017808
2.52	0.155319648955	0.26250029286
2.53	0.0220188644453	0.261613600293
2.54	-0.120803404672	0.262107522994
2.55	-0.282073550217	0.264121907769
2.56	-0.453460273158	0.267799576886
2.57	-0.633773387919	0.273235745191
2.58	-0.748031203213	0.280144768147
2.59	-0.861693925719	0.288193393791
2.6	-0.947387287189	0.297238799856
2.61	-0.975951741013	0.306855494997
2.62	-1.02355916405	0.316853049522
2.63	-1.09973104091	0.327469500547
2.64	-1.16638143317	0.338800062918
2.65	-1.19435079421	0.350603724054
2.66	-1.26100118646	0.362880483958
2.67	-1.28956564028	0.375633318092
2.68	-1.36573751715	0.388909833879
2.69	-1.42286642479	0.402852853588
2.7	-1.55557211651	0.417745046295
2.71	-1.62222250877	0.433634019421
2.72	-1.74600180867	0.450475141008
2.73	-1.79360923171	0.46817319621
2.74	-1.888228985	0.486582387294
2.75	-2.00248680029	0.50603596622
2.76	-2.07865867716	0.526441693608
2.77	-2.1262661002	0.547466317494
2.78	-2.20243797706	0.569109837881
2.79	-2.2399288227	0.59132167188
2.8	-2.2399288227	0.613720960107
2.81	-2.26849327653	0.636263070603
2.82	-2.32562218417	0.659233647906
2.83	-2.28753624574	0.682299440056
2.84	-2.24945030731	0.704984372821
2.85	-2.28753624574	0.727669305586
2.86	-2.29705773035	0.750592275467
2.87	-2.32562218417	0.773705675039
2.88	-2.28753624574	0.796771467189
2.89	-2.27801476113	0.819599222223
2.9	-2.25897179192	0.842284154988
2.91	-2.27801476113	0.864969087754
2.92	-2.23040733809	0.88751119825
2.93	-2.17387352324	0.909532602556
2.94	-2.1262661002	0.931033300674
2.95	-2.07865867716	0.95205792456
2.96	-2.06913719255	0.972796903909
2.97	-2.05009422333	0.993393060988
2.98	-1.97392234647	1.01351314384
2.99	-1.99296531569	1.03334758215
3	-1.95487937726	1.05308680561
3.01	-1.93583640804	1.07254038454
3.02	-1.92631492343	1.0918511412
3.03	-1.888228985	1.11092386074
3.04	-1.85073813936	1.12961869636
3.05	-1.84121665475	1.14807847033
3.06	-1.75552329328	1.16606217007
3.07	-1.73648032406	1.18352218816
3.08	-1.73648032406	1.2008869914
3.09	-1.66982993181	1.21791854268
3.1	-1.67935141642	1.23466444942
3.11	-1.63174399338	1.25121992647
3.12	-1.55557211651	1.26715650702
3.13	-1.51808127087	1.28252477395
3.14	-1.49903830166	1.29761037182
3.15	-1.39430197097	1.31207707318
3.16	-1.28956564028	1.32549641124
3.17	-1.19435079421	1.33791599341
3.18	-1.06164510248	1.34919597289
3.19	-0.947387287189	1.35924113484
3.2	-0.767074172429	1.36781344214
3.21	-0.595687449488	1.37462725025
3.22	-0.348723942472	1.37934930721
3.23	-0.0922389508487	1.38155412167
3.24	0.155319648955	1.38123871818
3.25	0.421326125186	1.37835548931
3.26	0.639725178378	1.3730502328
3.27	0.839676355143	1.36565322513
3.28	0.972382046864	1.35659293312
3.29	1.02951095451	1.34658346811
3.3	1.17233322363	1.33557424722
3.31	1.27647446153	1.32333020879
3.32	1.37168930761	1.31008938995
3.33	1.45738266908	1.29594403007
3.34	1.54307603055	1.28094173657
3.35	1.64721726844	1.26499027007
3.36	1.68530320688	1.2483276677
3.37	1.79003953756	1.23095095397
3.38	1.80908250678	1.21295534375
3.39	1.86621141442	1.19457887415
3.4	1.94238329129	1.17553590062
3.41	1.92334032207	1.15620728255
3.42	1.97035265232	1.13673881768
3.43	2.01796007536	1.11679725404
3.44	2.02748155997	1.09657004586
3.45	2.00843859075	1.07639044511
3.46	2.05604601379	1.05606802209
3.47	2.05604601379	1.03550756195
3.48	2.02748155997	1.01508992408
3.49	2.05604601379	0.994672286212
3.5	2.10365343683	0.973873788959
3.51	2.11317492144	0.952789647168
3.52	2.09413195222	0.931753112799
3.53	2.0655674984	0.910954615546
3.54	2.05604601379	0.890346547985
3.55	2.01796007536	0.869976517539
3.56	1.97987413693	0.849987346478
3.57	1.99891710615	0.830093390263
3.58	2.02748155997	0.809961396932
3.59	1.95190477589	0.790064465253
3.6	1.97987413693	0.770405570689
3.61	1.96083116771	0.750702044165
3.62	1.91381883746	0.73132879414
3.63	1.91381883746	0.712190605765
3.64	1.88525438364	0.693195239659
3.65	1.84716844521	0.674533125515
3.66	1.87573289903	0.655918618794
3.67	1.79956102217	0.637542149188
3.68	1.77099656835	0.619689361235
3.69	1.76147508374	0.602027002975
3.7	1.70434617609	0.584697896676
3.71	1.68530320688	0.567749649761
3.72	1.60913133001	0.551277477076
3.73	1.59068345359	0.535278403158
3.74	1.56211899976	0.519514390892
3.75	1.55259751515	0.503940808317
3.76	1.54307603055	0.488462440589
3.77	1.52403306133	0.473126895129
3.78	1.49546860751	0.458029386785
3.79	1.47642563829	0.443169915556
3.8	1.44786118447	0.428548481442
3.81	1.41929673064	0.414212691867
3.82	1.40977524604	0.400067331983
3.83	1.40977524604	0.385969579523
3.84	1.37168930761	0.372062256755
3.85	1.33360336917	0.358535793371
3.86	1.29551743074	0.345390189371
3.87	1.26695297692	0.332577837333
3.88	1.21041916206	0.320190976638
3.89	1.18185470824	0.308229607287
3.9	1.12472580059	0.296696704742
3.91	1.04855392373	0.285830306121
3.92	0.972382046864	0.275725626268
3.93	0.915253139217	0.266287450337
3.94	0.782547447496	0.257798447404
3.95	0.639725178378	0.250687084274
3.96	0.430847609794	0.245334220334
3.97	0.164841133563	0.242355776617
3.98	-0.205901673355	0.242561079316
3.99	-0.652816357135	0.246854669468
4	-1.09020955631	0.255569799035
4.01	-1.41334494019	0.268087571518
4.02	-1.59365805495	0.283122586494
4.03	-1.76504477789	0.299916100658
4.04	-1.888228985	0.318182469472
4.05	-1.97392234647	0.33749322613
4.06	-2.11674461559	0.35794656094
4.07	-2.11674461559	0.379114007096
4.08	-2.1262661002	0.400329060675
4.09	-2.14530906941	0.421686936523
4.1	-2.14530906941	0.443140027217
4.11	-2.14530906941	0.464593117911
4.12	-2.18339500784	0.486236638297
4.13	-2.11674461559	0.507737336414
4.14	-2.09770164637	0.528809567724
4.15	-2.07865867716	0.549691369342
4.16	-2.05009422333	0.570335133844
4.17	-2.05961570794	0.590883683501
4.18	-2.06913719255	0.611527448003
4.19	-2.1262661002	0.632504464467
4.2	-2.1262661002	0.653767125469
4.21	-2.15483055402	0.67517260874
4.22	-2.20243797706	0.696958951395
4.23	-2.23040733809	0.719123177971
4.24	-2.26849327653	0.741617681044
4.25	-2.31610069957	0.764540650925
4.26	-2.37322960721	0.787987302459
4.27	-2.38275109182	0.811767205954
4.28	-2.32562218417	0.835309072334
4.29	-2.38275109182	0.858850938714
4.3	-2.34466515339	0.88248801994
4.31	-2.40179406104	0.906220316012
4.32	-2.3637081226	0.93004782693
4.33	-2.32562218417	0.953494478464
4.34	-2.32562218417	0.976750700306
4.35	-2.30657921496	0.999911707301
4.36	-2.2399288227	1.02264424749
4.37	-2.22088585349	1.04494832087
4.38	-2.18339500784	1.06696972518
4.39	-2.16435203863	1.08870846041
4.4	-2.06913719255	1.10987590657
4.41	-2.05009422333	1.13047206364
4.42	-1.99296531569	1.15068736134
4.43	-1.94535789265	1.17037897738
4.44	-1.93583640804	1.18978494889
4.45	-1.86978110857	1.20881303647
4.46	-1.85073813936	1.22741563271
4.47	-1.82217368553	1.24578019183
4.48	-1.77456626249	1.26376389157
4.49	-1.72695883946	1.28127151708
4.5	-1.73648032406	1.2985887129
4.51	-1.73648032406	1.31595351614
4.52	-1.72695883946	1.33327071196
4.53	-1.71743735485	1.35049269293
4.54	-1.65078696259	1.36733381452
4.55	-1.66982993181	1.38393689899
4.56	-1.61270102416	1.40034955377
4.57	-1.58413657034	1.41633374174
4.58	-1.50855978626	1.43179722352
4.59	-1.47047384783	1.44669239169
4.6	-1.39430197097	1.46101627079
4.61	-1.32765157871	1.47462603854
4.62	-1.28004415568	1.48766451721
4.63	-1.22291524803	1.50017931423
4.64	-1.13781697935	1.51198297536
4.65	-1.02355916405	1.52278985608
4.66	-0.89977986415	1.53240655122
4.67	-0.795638626252	1.54088364367
4.68	-0.605208934096	1.54788788148
4.69	-0.377288396296	1.55280036813
4.7	-0.101760435457	1.55519561229
4.71	0.202927071994	1.5546897791
4.72	0.53558394048	1.55099722404
4.73	0.839676355143	1.54412092256
4.74	1.05807540833	1.53463216375
4.75	1.22946213128	1.52319447605
4.76	1.33360336917	1.51037914855
4.77	1.52403306133	1.49609096639
4.78	1.65673875305	1.48018710732
4.79	1.79956102217	1.46290560845
4.8	1.91381883746	1.44433870915
4.81	2.04652452919	1.42453699231
4.82	2.09413195222	1.40383370991
4.83	2.17982531369	1.38246392358
4.84	2.24647570595	1.36033241848
4.85	2.29408312899	1.3376296243
4.86	2.35061694385	1.31440612394
4.87	2.34109545924	1.29094756192
4.88	2.36965991306	1.26739378506
4.89	2.36013842846	1.24374479336
4.9	2.4172673361	1.21985776453
4.91	2.42678882071	1.19563748375
4.92	2.48391772836	1.171083951
4.93	2.50296069757	1.14614955887
4.94	2.43631030532	1.12145320386
4.95	2.38870288228	1.09732813792
4.96	2.39822436689	1.07339350168
4.97	2.36965991306	1.04955408028
4.98	2.39822436689	1.02571465888
4.99	2.30300952081	1.00220848944
5	2.27504015977	0.979318241035
5.01	2.26551867517	0.95661544686
5.02	2.29408312899	0.933817437839
5.03	2.25599719056	0.911067036241
5.04	2.24647570595	0.888554671759
5.05	2.1893467983	0.866375559238
5.06	2.16078234448	0.844624913524
5.07	2.11317492144	0.823255127194
5.08	1.99891710615	0.802694667056
5.09	1.90429735286	0.783178594761
5.1	1.92334032207	0.764040406386
5.11	1.88525438364	0.744997432858
5.12	1.8376469606	0.726382926137
5.13	1.78051805295	0.708292101069
5.14	1.75195359913	0.690629742809
5.15	1.70434617609	0.673348243932
5.16	1.67578172227	0.656447604441
5.17	1.60020493819	0.640067671138
5.18	1.51451157672	0.624494088564
5.19	1.47642563829	0.609539402489
5.2	1.41929673064	0.595060790644
5.21	1.38121079221	0.58105825303
5.22	1.33360336917	0.567484182223
5.23	1.31456039996	0.554243363377
5.24	1.25743149231	0.541383403916
5.25	1.24850510049	0.528853720952
5.26	1.19137619284	0.516654314485
5.27	1.18185470824	0.50478815998
5.28	1.12472580059	0.493255257436
5.29	1.09616134677	0.482150821699
5.3	1.06759689294	0.4713320305
5.31	1.03903243912	0.46079888384
5.32	1.00094650069	0.450598989141
5.33	0.953339077649	0.440827561249
5.34	0.934296108433	0.431389385319
5.35	0.915253139217	0.422141639081
5.36	0.877762293574	0.413176561917
5.37	0.849197839751	0.40454176125
5.38	0.811111901319	0.396240212545
5.39	0.792068932104	0.388224308378
5.4	0.76350447828	0.380446441326
5.41	0.734940024457	0.372954218812
5.42	0.687332601417	0.365842855683
5.43	0.668289632202	0.359064744515
5.44	0.639725178378	0.352524670462
5.45	0.611160724555	0.346270240947
5.46	0.582596270731	0.340301455971
5.47	0.582596270731	0.334475493263
5.48	0.554626909696	0.328789377361
5.49	0.545105425088	0.323290715687
5.5	0.516540971264	0.317982483705
5.51	0.497498002049	0.312912288839
5.52	0.459412063617	0.308127738511
5.53	0.421326125186	0.303724047567
5.54	0.392761671363	0.299653608584
5.55	0.354675732931	0.295916421562
5.56	0.307068309892	0.292607701348
5.57	0.249939402245	0.289822662788
5.58	0.174362618171	0.287701152685
5.59	0.0886692567001	0.286385993311
5.6	0.0124973798374	0.285880160128
5.61	-0.111281920064	0.28637408283
5.62	-0.243987611786	0.288150430489
5.63	-0.434417303943	0.291542455067
5.64	-0.67185932635	0.297073838219
5.65	-0.947387287189	0.305170071287
5.66	-1.24195821724	0.316116798809
5.67	-1.49903830166	0.329821781403
5.68	-1.71743735485	0.345904159686
5.69	-2.06913719255	0.364837032423
5.7	-2.354186638	0.386953651576
5.71	-2.5821071758	0.411635120645
5.72	-2.82014429099	0.438646377979
5.73	-3.03854334418	0.467939816154
5.74	-3.22897303634	0.499277398057
5.75	-3.38072169728	0.532325871725
5.76	-3.54258693561	0.56694241489
5.77	-3.69433559655	0.60312702755
5.78	-3.79907192723	0.640594065169
5.79	-3.84667935027	0.678822821557
5.8	-3.80859341184	0.717099185367
5.81	-3.86572231949	0.755470764024
5.82	-3.95141568096	0.794556454026
5.83	-3.979385042	0.834210457641
5.84	-3.979385042	0.874004308061
5.85	-4.04603543425	0.914131410442
5.86	-3.9889065266	0.954306120246
5.87	-4.03651394964	0.994433222628
5.88	-4.05555691886	1.03489357697
5.89	-4.17933621876	1.07606804266
5.9	-4.25550809562	1.11824226423
5.91	-4.18885770337	1.16046409323
5.92	-4.19837918798	1.20240027768
5.93	-4.31204191048	1.24495238317
5.94	-4.31204191048	1.28807280228
5.95	-4.3310848797	1.33128843623
5.96	-4.31204191048	1.37450407018
5.97	-4.23646512641	1.41724660537
5.98	-4.1031643419	1.45894475271
5.99	-3.95141568096	1.49921765282
6	-4.01747098043	1.53906208613
6.01	-3.9889065266	1.57909397366
6.02	-3.99842801121	1.61903064635
6.03	-3.88476528871	1.65844661285
6.04	-3.78955044263	1.69681819151
6.05	-3.72290005037	1.73438044397
6.06	-3.79907192723	1.77199030386
6.07	-3.7609859888	1.80979059344
6.08	-3.73242153498	1.84725763106
6.09	-3.68481411194	1.8843438093
6.1	-3.6372066889	1.9209539133
6.11	-3.5235439664	1.95675766658
6.12	-3.46641505875	1.9917074617
6.13	-3.46641505875	2.02637161229
6.14	-3.38072169728	2.06060729607
6.15	-3.33311427424	2.09417647593
6.16	-3.27598536659	2.12722197413
6.17	-3.20040858252	2.15960394388
6.18	-3.15280115948	2.19136999259
6.19	-3.10519373644	2.22265996707
6.2	-2.88679468325	2.25261990916
6.21	-2.87727319864	2.28144024857
6.22	-2.82014429099	2.30992733602
6.23	-2.82014429099	2.33812877893
6.24	-2.76301538335	2.3660445773
6.25	-2.68684350648	2.39329387175
6.26	-2.68684350648	2.42016230682
6.27	-2.62019311423	2.44669748992
6.28	-2.55413781476	2.47256914457
6.29	-2.45892296868	2.49763444848
6.3	-2.354186638	2.52169999652
6.31	-2.24945030731	2.54471818124
6.32	-2.16435203863	2.56678719297
6.33	-2.04057273873	2.58781181686
6.34	-1.93583640804	2.60769386259
6.35	-1.79360923171	2.62634109079
6.36	-1.68887290102	2.64375350146
6.37	-1.58413657034	2.66011854881
6.38	-1.47047384783	2.6753916009
6.39	-1.33717306332	2.68942983546
6.4	-1.20387227881	2.70213506217
6.41	-1.09020955631	2.71360547135
6.42	-1.01403767944	2.72412670752
6.43	-0.966430256405	2.7340290472
6.44	-0.909301348758	2.74340770523
6.45	-0.833129471896	2.75211985933
6.46	-0.748031203213	2.76002566271
6.47	-0.67185932635	2.76712511536
6.48	-0.576644480272	2.77336763439
6.49	-0.481429634194	2.77865800496
6.5	-0.405852850119	2.78309441738
6.51	-0.329680973256	2.7867720865
6.52	-0.272552065609	2.78978325169
6.53	-0.196380188747	2.79212791297
6.54	-0.148772765708	2.79385367774
6.55	-0.101760435457	2.79510634374
6.56	-0.0636744970252	2.79593351841
6.57	0.0124973798374	2.79618940399
6.58	0.0886692567001	2.79568357081
6.59	0.193405587386	2.79427319659
6.6	0.268982371461	2.7919612568
6.61	0.335632763716	2.78893818112
6.62	0.345154248324	2.78553424606
6.63	0.335632763716	2.782130311
6.64	0.3165897945	2.77886919821
6.65	0.345154248324	2.77556047799
6.66	0.392761671363	2.7718708984
6.67	0.459412063617	2.76761002972
6.68	0.545105425088	2.76258744228
6.69	0.639725178378	2.75666328926
6.7	0.706375570633	2.74993278551
6.71	0.820633385927	2.74229774073
6.72	0.924774623825	2.73357070068
6.73	1.09616134677	2.72346602083
6.74	1.27647446153	2.71160284179
6.75	1.52403306133	2.69760030417
6.76	1.77099656835	2.68112515603
6.77	2.03700304458	2.66208515796
6.78	2.31253100542	2.64033748771
6.79	2.56008960522	2.61597438466
6.8	2.80705311224	2.58913867107
6.81	3.02545216543	2.55997614468
6.82	3.19683888837	2.52886468941
6.83	3.39619497235	2.49589952011
6.84	3.50093130303	2.46141388873
6.85	3.5866246645	2.4259761089
6.86	3.70028738701	2.38954154864
6.87	3.70028738701	2.35253867477
6.88	3.70028738701	2.3155358009
6.89	3.66279654136	2.27872038126
6.9	3.78598074848	2.24147649481
6.91	3.8145452023	2.20347386505
6.92	3.71933035622	2.16580448726
6.93	3.59614614911	2.12922710473
6.94	3.66279654136	2.09293239128
6.95	3.70980887162	2.05606936422
6.96	3.82406668691	2.01839998642
6.97	3.90976004838	1.97973085275
6.98	3.91928153299	1.94058564484
6.99	3.90976004838	1.90144043693
7	3.85263114073	1.86262848099
7.01	3.90976004838	1.82381652504
7.02	3.98593192524	1.78433806517
7.03	3.96688895603	1.74457396077
7.04	4.00497489446	1.70471464152
7.05	3.91928153299	1.66509335938
7.06	3.9383245022	1.6258053292
7.07	3.86215262534	1.58680294356
7.08	3.80502371769	1.54846706185
7.09	3.76693777926	1.51060725436
7.1	3.70028738701	1.47327112853
7.11	3.68183951058	1.43636049405
7.12	3.68183951058	1.39954209894
7.13	3.60566763372	1.36310456322
7.14	3.5866246645	1.32714310173
7.15	3.54853872607	1.29146728477
7.16	3.39619497235	1.25674361628
7.17	3.40571645695	1.22273405914
7.18	3.2349248268	1.18953085272
7.19	3.2349248268	1.15718160445
7.2	3.13018849611	1.12535603783
7.21	3.10162404229	1.09419697514
7.22	3.03497365004	1.06351398668
7.23	2.95939686596	1.0335421341
7.24	2.85466053527	1.00447184709
7.25	2.74992420459	0.976448923395
7.26	2.74040271998	0.948997288772
7.27	2.67375232773	0.921926513533
7.28	2.62673999747	0.895424051907
7.29	2.55056812061	0.869537511317
7.3	2.52200366679	0.84417465238
7.31	2.48391772836	0.819145045404
7.32	2.39822436689	0.794734334928
7.33	2.35061694385	0.770990128374
7.34	2.28456164438	0.747814235433
7.35	2.20838976752	0.725349478374
7.36	2.10365343683	0.703789262352
7.37	2.0655674984	0.682943157676
7.38	1.98939562154	0.662668342076
7.39	1.89477586825	0.643247484627
7.4	1.85668992982	0.624490155637
7.41	1.79956102217	0.606208900877
7.42	1.76147508374	0.588403720347
7.43	1.7138676607	0.571027006625
7.44	1.66626023766	0.554126367133
7.45	1.57164048437	0.537936863523
7.46	1.53355454594	0.522410888372
7.47	1.45738266908	0.507456202297
7.48	1.37168930761	0.493310842413
7.49	1.29551743074	0.479974808721
7.5	1.21994064667	0.467397518334
7.51	1.12472580059	0.455674186098
7.52	1.06759689294	0.44471257263
7.53	0.962860562257	0.434560285354
7.54	0.858719324358	0.425452385921
7.55	0.715897055241	0.417579304023
7.56	0.611160724555	0.410944015124
7.57	0.53558394048	0.405210291799
7.58	0.459412063617	0.400235311779
7.59	0.430847609794	0.395784013412
7.6	0.392761671363	0.391665967006
7.61	0.364197217539	0.387881172561
7.62	0.354675732931	0.384286807809
7.63	0.335632763716	0.380835265326
7.64	0.307068309892	0.377621759958
7.65	0.307068309892	0.374551076859
7.66	0.259460886853	0.371718430875
7.67	0.240417917637	0.369219036853
7.68	0.202927071994	0.367002311904
7.69	0.126755195131	0.365353900569
7.7	0.0315403490531	0.364562422848
7.71	-0.120803404672	0.365008738126
7.72	-0.35824542708	0.367403982285
7.73	-0.662337841743	0.372506898629
7.74	-0.966430256405	0.38065073912
7.75	-1.23243673264	0.391645074065
7.76	-1.47047384783	0.405159626967
7.77	-1.58413657034	0.420432679058
7.78	-1.85073813936	0.437607052606
7.79	-1.97392234647	0.456730355036
7.8	-2.1357875848	0.477278904692
7.81	-2.16435203863	0.498779602809
7.82	-2.15483055402	0.520375515772
7.83	-2.11674461559	0.54173339162
7.84	-2.06913719255	0.562662800661
7.85	-2.05009422333	0.583258957741
7.86	-1.99296531569	0.603474255436
7.87	-1.93583640804	0.623118264054
7.88	-1.91679343882	0.642381413289
7.89	-1.85073813936	0.661219071179
7.9	-1.86978110857	0.679821667419
7.91	-1.87870750039	0.698564110464
7.92	-1.81265220093	0.717020908971
7.93	-1.86025962397	0.735385468095
7.94	-1.82217368553	0.753797634643
7.95	-1.84121665475	0.772114586344
7.96	-1.84121665475	0.790526752891
7.97	-1.87870750039	0.809126373667
7.98	-1.89775046961	0.828008663517
7.99	-1.94535789265	0.847224205328
8	-2.03105125412	0.867106251062
8.01	-1.99296531569	0.887226333911
8.02	-2.05961570794	0.907489239029
8.03	-2.09770164637	0.928275825801
8.04	-2.15483055402	0.949538486803
8.05	-2.16435203863	0.971134399766
8.06	-2.16435203863	0.992777920153
8.07	-2.19291649245	1.01456426281
8.08	-2.1262661002	1.03616017577
8.09	-2.08818016177	1.05723240708
8.1	-2.04057273873	1.07787617158
8.11	-2.00248680029	1.09809146928
8.12	-1.91679343882	1.11768787047
8.13	-1.85073813936	1.13652552837
8.14	-1.77456626249	1.15465205037
8.15	-1.67935141642	1.17192163877
8.16	-1.63174399338	1.18847711582
8.17	-1.57461508573	1.20450891121
8.18	-1.5365291473	1.22006463238
8.19	-1.47047384783	1.23509964735
8.2	-1.4323879094	1.24961395614
8.21	-1.38478048636	1.26369979812
8.22	-1.32765157871	1.27726195844
8.23	-1.28004415568	1.29030043712
8.24	-1.23243673264	1.30286284156
8.25	-1.14733846395	1.31476171754
8.26	-1.09020955631	1.32594945764
8.27	-1.05212361788	1.33666112351
8.28	-0.985473225621	1.34684910773
8.29	-0.909301348758	1.3563229806
8.3	-0.861693925719	1.36517795698
8.31	-0.767074172429	1.37332179747
8.32	-0.633773387919	1.38032603527
8.33	-0.453460273158	1.38576220357
8.34	-0.243987611786	1.389249443
8.35	-0.0255885585939	1.39059732385
8.36	0.240417917637	1.38952317705
8.37	0.526062455872	1.38569077519
8.38	0.830154870535	1.37890968855
8.39	1.05807540833	1.36946853716
8.4	1.24850510049	1.35793563462
8.41	1.37168930761	1.34483466258
8.42	1.60913133001	1.32993055939
8.43	1.79956102217	1.31288709763
8.44	1.94238329129	1.29417737606
8.45	2.05604601379	1.27418522953
8.46	2.13221789066	1.25324391001
8.47	2.22743273673	1.23144565687
8.48	2.26551867517	1.20898089982
8.49	2.29408312899	1.18618289079
8.5	2.26551867517	1.16338488177
8.51	2.26551867517	1.14072969502
8.52	2.28456164438	1.11797929342
8.53	2.24647570595	1.09532410667
8.54	2.25599719056	1.07281174219
8.55	2.25599719056	1.05025177028
8.56	2.29408312899	1.02750136869
8.57	2.29408312899	1.0045605374
8.58	2.28456164438	0.98166731353
8.59	2.31253100542	0.958681850281
8.6	2.29408312899	0.935648779609
8.61	2.33157397463	0.912520494091
8.62	2.29408312899	0.889392208573
8.63	2.28456164438	0.866498984706
8.64	2.21791125213	0.843986620223
8.65	2.20838976752	0.821855115125
8.66	2.23695422134	0.799628395181
8.67	2.27504015977	0.777068423275
8.68	2.28456164438	0.754270414255
8.69	2.28456164438	0.731424797811
8.7	2.28456164438	0.708579181367
8.71	2.26551867517	0.685828779769
8.72	2.23695422134	0.663316415287
8.73	2.21791125213	0.641042087919
8.74	2.16078234448	0.619148619936
8.75	2.13221789066	0.597683618761
8.76	2.11317492144	0.5764566547
8.77	2.12269640605	0.555277298063
8.78	2.05604601379	0.534383585963
8.79	2.09413195222	0.513632696133
8.8	2.0655674984	0.49283419888
8.81	2.01796007536	0.472416561011
8.82	1.97987413693	0.45242738995
8.83	1.93286180668	0.432863710232
8.84	1.89477586825	0.413725521857
8.85	1.81860399139	0.395158622559
8.86	1.80908250678	0.377020190068
8.87	1.73291062991	0.359310224385
8.88	1.62817429923	0.342504799739
8.89	1.53355454594	0.326696155513
8.9	1.40977524604	0.311979506553
8.91	1.29551743074	0.298453043169
8.92	1.21041916206	0.285923360205
8.93	1.06759689294	0.27453327993
8.94	0.934296108433	0.264523814924
8.95	0.773025962888	0.255987204567
8.96	0.582596270731	0.249209093399
8.97	0.354675732931	0.244522733381
8.98	0.117233710524	0.242163186163
8.99	-0.215423157963	0.242654133401
9	-0.595687449488	0.246709686438
9.01	-0.985473225621	0.254615489813
9.02	-1.28956564028	0.265990684143
9.03	-1.51808127087	0.280028918699
9.04	-1.63174399338	0.29577804502
9.05	-1.89775046961	0.313425517335
9.06	-2.00248680029	0.332926703684
9.07	-2.16435203863	0.353760897879
9.08	-2.28753624574	0.376020339301
9.09	-2.38275109182	0.399371775989
9.1	-2.43035851486	0.423437324022
9.11	-2.49700890711	0.448074161132
9.12	-2.52557336094	0.473187072472
9.13	-2.60115014501	0.498820690002
9.14	-2.55413781476	0.524597129801
9.15	-2.55413781476	0.550138507948
9.16	-2.61067162962	0.57596255517
9.17	-2.56365929937	0.601834209815
9.18	-2.64875756805	0.627896294152
9.19	-2.62971459884	0.654288654987
9.2	-2.65827905266	0.680728623244
9.21	-2.61067162962	0.707073376656
9.22	-2.60115014501	0.733132485529
9.23	-2.60115014501	0.759143986979
9.24	-2.62019311423	0.785250703275
9.25	-2.65827905266	0.811643064109
9.26	-2.64875756805	0.838178247213
9.27	-2.57258569119	0.864284963509
9.28	-2.5821071758	0.890058427844
9.29	-2.49700890711	0.915454008259
9.3	-2.54461633015	0.940662134445
9.31	-2.4779659379	0.965775045785
9.32	-2.45892296868	0.990459490318
9.33	-2.41131554564	1.01481068289
9.34	-2.32562218417	1.03849537154
9.35	-2.32562218417	1.06175159338
9.36	-2.30657921496	1.08491260038
9.37	-2.26849327653	1.10778796283
9.38	-2.26849327653	1.1304728956
9.39	-2.19291649245	1.15277994444
9.4	-2.1262661002	1.17437585741
9.41	-2.11674461559	1.19559091099
9.42	-2.03105125412	1.21632989033
9.43	-1.96440086186	1.23630715091
9.44	-1.89775046961	1.25561790757
9.45	-1.85073813936	1.27436035062
9.46	-1.80313071632	1.2926296949
9.47	-1.76504477789	1.31047057237
9.48	-1.71743735485	1.32788298303
9.49	-1.66982993181	1.34481931946
9.5	-1.65078696259	1.36142240394
9.51	-1.63174399338	1.37783505871
9.52	-1.59365805495	1.39396206896
9.53	-1.56509360112	1.40975582724
9.54	-1.57461508573	1.42545437067
9.55	-1.5365291473	1.44101009184
9.56	-1.5365291473	1.45637538331
9.57	-1.51808127087	1.4716484354
9.58	-1.48951681705	1.48668642584
9.59	-1.46095236322	1.50143877174
9.6	-1.40382345558	1.51576265084
9.61	-1.35621603254	1.52956284828
9.62	-1.28956564028	1.54279175664
9.63	-1.24195821724	1.55544937593
9.64	-1.16638143317	1.56749107418
9.65	-1.06164510248	1.57863120686
9.66	-0.956908771797	1.58872397623
9.67	-0.786117141644	1.5974391058
9.68	-0.576644480272	1.60425291391
9.69	-0.320159488649	1.60873693375
9.7	0.0124973798374	1.61027524429
9.71	0.392761671363	1.60824894904
9.72	0.820633385927	1.60218197375
9.73	1.14376876981	1.59235996297
9.74	1.35264633839	1.57987788743
9.75	1.49546860751	1.5656373127
9.76	1.66626023766	1.54982866848
9.77	1.84716844521	1.53226152506
9.78	1.97987413693	1.51312631215
9.79	2.05604601379	1.4929467114
9.8	2.11317492144	1.47210060672
9.81	2.08461046762	1.45111167978
9.82	2.07508898301	1.43031318252
9.83	2.08461046762	1.40951468527
9.84	2.05604601379	1.38881140286
9.85	2.0655674984	1.3682033353
9.86	2.13221789066	1.34721440836
9.87	2.09413195222	1.32608265914
9.88	2.02748155997	1.30547459158
9.89	2.02748155997	1.28519977598
9.9	2.01796007536	1.26497256781
9.91	2.03700304458	1.24469775221
9.92	2.04652452919	1.22428011434
9.93	2.03700304458	1.20386247647
9.94	2.08461046762	1.18325440891
9.95	2.08461046762	1.16240830423
9.96	2.07508898301	1.14160980698
9.97	2.0655674984	1.12090652457
9.98	2.00843859075	1.10053649413
9.99	2.00843859075	1.08045210822
10	1.97035265232	1.060558152
10.01	1.95190477589	1.04094686486
10.02	1.98939562154	1.02124036287
10.03	1.95190477589	1.00153386089
10.04	1.95190477589	0.982014813128
10.05	1.91381883746	0.962686195061
10.06	1.90429735286	0.94359561411
10.07	1.92334032207	0.924457425735
10.08	1.91381883746	0.905271629937
10.09	1.86621141442	0.886371478678
10.1	1.86621141442	0.867709364534
10.11	1.82812547599	0.849237680082
10.12	1.81860399139	0.831004032745
10.13	1.78051805295	0.813008422523
10.14	1.76147508374	0.79529845684
10.15	1.7138676607	0.777921743117
10.16	1.72338914531	0.760735459087
10.17	1.66626023766	0.743787212173
10.18	1.63769578384	0.727267432065
10.19	1.60913133001	0.711033296496
10.2	1.57164048437	0.695129437424
10.21	1.54307603055	0.679555854849
10.22	1.4859471229	0.664410739082
10.23	1.49546860751	0.64950366043
10.24	1.46690415368	0.634691796624
10.25	1.42881821525	0.620213184779
10.26	1.362167823	0.606258254588
10.27	1.34312485378	0.592731791204
10.28	1.33360336917	0.57934815009
10.29	1.30503891535	0.566154938667
10.3	1.26695297692	0.553294979206
10.31	1.21994064667	0.540860511088
10.32	1.19137619284	0.52880392689
10.33	1.14376876981	0.517128202077
10.34	1.12472580059	0.505785729225
10.35	1.10568283137	0.494633686065
10.36	1.10568283137	0.483576857751
10.37	1.06759689294	0.47271045913
10.38	1.03903243912	0.462177312469
10.39	1.02951095451	0.451834595501
10.4	1.0104679853	0.441634700802
10.41	0.972382046864	0.431720450641
10.42	0.953339077649	0.422091845019
10.43	0.915253139217	0.412748883935
10.44	0.887283778182	0.403736199348
10.45	0.868240808966	0.394958576412
10.46	0.849197839751	0.386371383168
10.47	0.830154870535	0.377974619617
10.48	0.782547447496	0.369911108027
10.49	0.753982993672	0.362228455821
10.5	0.744461509064	0.354736233307
10.51	0.668289632202	0.347672477601
10.52	0.649246662986	0.341084796125
10.53	0.601639239947	0.33483036661
10.54	0.554626909696	0.329049035862
10.55	0.516540971264	0.323693196457
10.56	0.468933548225	0.31876582386
10.57	0.402283155971	0.314409740339
10.58	0.345154248324	0.310672553317
10.59	0.268982371461	0.307601870218
10.6	0.174362618171	0.30538514527
10.61	0.0601048028766	0.304212808165
10.62	-0.0446315278095	0.30413544179
10.63	-0.177337219531	0.305245285526
10.64	-0.348723942472	0.307875591336
10.65	-0.548080026449	0.312359611181
10.66	-0.757552687821	0.318887774752
10.67	-0.975951741013	0.327555296896
10.68	-1.19435079421	0.338406809573
10.69	-1.35621603254	0.351159643706
10.7	-1.51808127087	0.365531130223
10.71	-1.7840877471	0.382041975313
10.72	-1.96440086186	0.400784418358
10.73	-2.18339500784	0.421523397707
10.74	-2.34466515339	0.444163698513
10.75	-2.44940148407	0.4681340317
10.76	-2.56365929937	0.493199335617
10.77	-2.65827905266	0.519309027377
10.78	-2.77253686795	0.54646310698
10.79	-2.80110132178	0.574331297929
10.8	-2.81062280638	0.60238991857
10.81	-2.96237146732	0.631254889938
10.82	-3.03854334418	0.661259463996
10.83	-3.09567225183	0.691930541976
10.84	-3.1813656133	0.723315731302
10.85	-3.24801600556	0.755462639396
10.86	-3.26646388198	0.788035038834
10.87	-3.34263575885	0.821080537038
10.88	-3.37120021267	0.854649716895
10.89	-3.4092861511	0.888552148714
10.9	-3.42832912032	0.922740225071
10.91	-3.4092861511	0.956928301428
10.92	-3.5235439664	0.991592452016
10.93	-3.57115138943	1.02706592879
10.94	-3.56162990483	1.06272983527
10.95	-3.62768520429	1.09867641081
10.96	-3.56162990483	1.13462298636
10.97	-3.67529262733	1.17080759902
10.98	-3.7514645042	1.20794138468
10.99	-3.67529262733	1.24507517033
11	-3.6372066889	1.28163766691
11.01	-3.64672817351	1.31805734123
11.02	-3.51402248179	1.3538610945
11.03	-3.61816371969	1.38952202551
11.04	-3.66577114273	1.42594169982
11.05	-3.74194301959	1.46298027063
11.06	-3.82763638106	1.50082816764
11.07	-3.69433559655	1.53843802753
11.08	-3.72290005037	1.57552420576
11.09	-3.64672817351	1.61237234688
11.1	-3.64672817351	1.64883962861
11.11	-3.48545802796	1.68450055962
11.12	-3.5235439664	1.71954556959
11.13	-3.46641505875	1.75449536472
11.14	-3.51402248179	1.78939755242
11.15	-3.48545802796	1.82439495497
11.16	-3.39024318189	1.85877346102
11.17	-3.36167872806	1.89253307057
11.18	-3.26646388198	1.92567378362
11.19	-3.23849452095	1.95819857563
11.2	-3.26646388198	1.99072336765
11.21	-3.29502833581	2.02353082874
11.22	-3.22897303634	2.0561508356
11.23	-3.23849452095	2.08848817339
11.24	-3.21945155173	2.12077790375
11.25	-3.15280115948	2.15263916731
11.26	-3.10519373644	2.18392914178
11.27	-3.03854334418	2.21464782719
11.28	-2.98141443654	2.24474761609
11.29	-2.96237146732	2.27446654561
11.3	-2.96237146732	2.30409026028
11.31	-2.88679468325	2.33333609104
11.32	-2.8296657756	2.36191839333
11.33	-2.71540796031	2.38964376201
11.34	-2.67732202187	2.41660741192
11.35	-2.54461633015	2.44271710368
11.36	-2.42083703025	2.46754437048
11.37	-2.34466515339	2.4913718814
11.38	-2.25897179192	2.51439006613
11.39	-2.17387352324	2.5365542927
11.4	-2.03105125412	2.55757891659
11.41	-1.93583640804	2.5774133549
11.42	-1.83169517014	2.59625101279
11.43	-1.77456626249	2.61428231996
11.44	-1.62222250877	2.63126626381
11.45	-1.49903830166	2.64687256786
11.46	-1.33717306332	2.66105362469
11.47	-1.1848293096	2.67366363655
11.48	-1.09973104091	2.68508643831
11.49	-1.00451619484	2.69560767449
11.5	-0.861693925719	2.70493872509
11.51	-0.776595657037	2.713130173
11.52	-0.643294872527	2.72022962565
11.53	-0.595687449488	2.72642453726
11.54	-0.481429634194	2.73181012268
11.55	-0.396331365511	2.73619892768
11.56	-0.253509096394	2.73944812999
11.57	-0.101760435457	2.74122447765
11.58	0.0601048028766	2.74143275581
11.59	0.164841133563	2.74030802613
11.6	0.278503856069	2.73809130118
11.61	0.383240186755	2.73478258096
11.62	0.459412063617	2.73056931971
11.63	0.468933548225	2.72592759165
11.64	0.430847609794	2.72142868586
11.65	0.335632763716	2.717596284
11.66	0.183884102778	2.71499869966
11.67	0.0505833182688	2.71382636256
11.68	-0.0351100432017	2.71374899618
11.69	-0.0255885585939	2.71405248919
11.7	0.00297589522961	2.71416555251
11.71	0.0124973798374	2.71408818613
11.72	0.0315403490531	2.71386799749
11.73	-0.0160670739861	2.71379063111
11.74	-0.0636744970252	2.71418933897
11.75	-0.120803404672	2.71511172848
11.76	-0.167815734923	2.71655482417
11.77	-0.205901673355	2.71842341122
11.78	-0.263030581002	2.72076807249
11.79	-0.329680973256	2.72373163026
11.8	-0.377288396296	2.72726647711
11.81	-0.396331365511	2.73113457592
11.82	-0.329680973256	2.73476463761
11.83	-0.177337219531	2.73729972857
11.84	0.0410618336609	2.7379811055
11.85	0.268982371461	2.73643088448
11.86	0.487976517441	2.73264609003
11.87	0.63020369377	2.72705518898
11.88	0.801590416711	2.71989621842
11.89	0.972382046864	2.71102635611
11.9	1.19137619284	2.70020756491
11.91	1.57164048437	2.68639248152
11.92	2.0655674984	2.66820644161
11.93	2.56961108983	2.64503054867
11.94	3.13970998072	2.61648394331
11.95	3.62471060293	2.5826618404
11.96	4.03353934828	2.54437059064
11.97	4.30906730912	2.50265755735
11.98	4.54650933153	2.45837967415
11.99	4.70837456986	2.41210525464
12	4.84108026158	2.36435798049
12.01	4.99342401531	2.3151854591
12.02	5.17373713007	2.26434965337
12.03	5.19278009929	2.21251706723
12.04	4.9839025307	2.16163365408
12.05	5.09756525321	2.11122631516
12.06	5.28799494536	2.05929851416
12.07	5.39273127605	2.00589488306
12.08	5.4397436063	1.95173250865
12.09	5.25943049154	1.89823663816
12.1	5.15469416085	1.84616601489
12.11	5.29751642997	1.79390496194
12.12	5.40225276066	1.74040611599
12.13	5.32608088379	1.68676444777
12.14	5.26895197615	1.63378928347
12.15	5.3356023684	1.58076651174
12.16	5.36416682223	1.52726766579
12.17	5.27847346076	1.47405446437
12.18	5.26895197615	1.42131733719
12.19	5.25943049154	1.36867542485
12.2	5.28799494536	1.31593829767
12.21	5.18325861468	1.26358202987
12.22	5.06959589217	1.21231775733
12.23	5.09756525321	1.16148195161
12.24	5.25943049154	1.10969697288
12.25	5.16421564546	1.0575787422
12.26	4.9839025307	1.00683815132
12.27	4.89820916923	0.957427592817
12.28	4.90773065384	0.908397893701
12.29	4.93629510766	0.859177764894
12.3	4.85060174619	0.810243280624
12.31	4.67028863143	0.762638828736
12.32	4.61315972378	0.71622158696
12.33	4.67028863143	0.669804345184
12.34	4.67981011604	0.623053851447
12.35	4.52746636231	0.577017469055
12.36	4.38523918598	0.532453941314
12.37	4.25193840147	0.489268053376
12.38	4.30906730912	0.446463024823
12.39	4.27098137069	0.403562781424
12.4	4.10911613236	0.361662293909
12.41	3.9288030176	0.321472698159
12.42	3.96688895603	0.281994238291
12.43	3.83358817152	0.242991852653
12.44	3.76693777926	0.2049892229
12.45	3.66279654136	0.167840551296
12.46	3.43428091078	0.132355164036
12.47	3.29205373445	0.0987234908096
12.48	3.04449513464	0.0670407464642
12.49	2.82609608145	0.0376877903837
12.5	2.69279529694	0.0100933334918
12.51	2.59817554365	-0.0163615207112
12.52	2.49343921297	-0.0418195944943
12.53	2.4172673361	-0.0663731272396
12.54	2.36965991306	-0.0903077634854
12.55	2.27504015977	-0.11353126385
12.56	2.1893467983	-0.13585319864
12.57	2.12269640605	-0.157413414662
12.58	2.02748155997	-0.178164304492
12.59	1.94238329129	-0.198013628748
12.6	1.90429735286	-0.217247031969
12.61	1.82812547599	-0.235909146113
12.62	1.79956102217	-0.254047578604
12.63	1.77099656835	-0.271900366556
12.64	1.73291062991	-0.289419902548
12.65	1.67578172227	-0.306463364309
12.66	1.61865281462	-0.322935536993
12.67	1.60913133001	-0.339074457716
12.68	1.57164048437	-0.354978316788
12.69	1.49546860751	-0.370313862248
12.7	1.42881821525	-0.384935296361
12.71	1.38121079221	-0.398985441399
12.72	1.35264633839	-0.412654727052
12.73	1.31456039996	-0.425990760743
12.74	1.27647446153	-0.438945935051
12.75	1.21994064667	-0.451428010592
12.76	1.18185470824	-0.463436987366
12.77	1.15329025441	-0.47511271218
12.78	1.10568283137	-0.486407577609
12.79	1.07711837755	-0.497321583653
12.8	1.04855392373	-0.50794994516
12.81	1.02951095451	-0.518340269551
12.82	1.0104679853	-0.52854016425
12.83	0.99142501608	-0.538549629257
12.84	0.962860562257	-0.548321057148
12.85	0.962860562257	-0.557949662771
12.86	0.943817593041	-0.567483053547
12.87	0.915253139217	-0.576778407209
12.88	0.887283778182	-0.585791091796
12.89	0.858719324358	-0.594521107308
12.9	0.849197839751	-0.603060693129
12.91	0.839676355143	-0.611505064103
12.92	0.811111901319	-0.619759005386
12.93	0.811111901319	-0.627870124399
12.94	0.792068932104	-0.635886028566
12.95	0.773025962888	-0.643711503041
12.96	0.773025962888	-0.65144176267
12.97	0.76350447828	-0.659124414876
12.98	0.734940024457	-0.666616637389
12.99	0.706375570633	-0.673823215365
13	0.696854086025	-0.680839363648
13.01	0.696854086025	-0.687807904508
13.02	0.687332601417	-0.694728837946
13.03	0.668289632202	-0.701506949114
13.04	0.658768147594	-0.708142238013
13.05	0.639725178378	-0.714634704643
13.06	0.611160724555	-0.720889134157
13.07	0.611160724555	-0.727000741403
13.08	0.601639239947	-0.733064741225
13.09	0.592117755339	-0.739033526202
13.1	0.582596270731	-0.744907096332
13.11	0.554626909696	-0.750593212234
13.12	0.545105425088	-0.756091873908
13.13	0.516540971264	-0.76140010589
13.14	0.507019486657	-0.766517908179
13.15	0.507019486657	-0.771588103046
13.16	0.497498002049	-0.77661069049
13.17	0.478455032833	-0.781490455664
13.18	0.487976517441	-0.786322613415
13.19	0.459412063617	-0.791059556321
13.2	0.44989057901	-0.795606069534
13.21	0.440369094402	-0.800057367901
13.22	0.421326125186	-0.804365843999
13.23	0.411804640578	-0.808531497828
13.24	0.421326125186	-0.812697151656
13.25	0.402283155971	-0.816815198062
13.26	0.383240186755	-0.820742814776
13.27	0.383240186755	-0.824575216643
13.28	0.364197217539	-0.828312403665
13.29	0.364197217539	-0.83195437584
13.3	0.373718702147	-0.835643955439
13.31	0.354675732931	-0.839285927614
13.32	0.354675732931	-0.842832684943
13.33	0.345154248324	-0.84633183485
13.34	0.307068309892	-0.849592947641
13.35	0.288025340677	-0.852568415894
13.36	0.240417917637	-0.855210632185
13.37	0.0886692567001	-0.856856068057
13.38	-0.148772765708	-0.856555550512
13.39	-0.377288396296	-0.853925244702
13.4	-0.652816357135	-0.848774720935
13.41	-0.89977986415	-0.841011739828
13.42	-1.13781697935	-0.830823755611
13.43	-1.35621603254	-0.818353590551
13.44	-1.4323879094	-0.804410570842
13.45	-1.63174399338	-0.789089911328
13.46	-1.83169517014	-0.77177271551
13.47	-1.97392234647	-0.752744627927
13.48	-2.08818016177	-0.732434115386
13.49	-2.17387352324	-0.711123846961
13.5	-2.27801476113	-0.688864405539
13.51	-2.31610069957	-0.665893828235
13.52	-2.40179406104	-0.642304354432
13.53	-2.46844445329	-0.617953161861
13.54	-2.57258569119	-0.592748011138
13.55	-2.65827905266	-0.566593687419
13.56	-2.67732202187	-0.539915682046
13.57	-2.76301538335	-0.51271399502
13.58	-2.84870874482	-0.484655374379
13.59	-2.88679468325	-0.455977857239
13.6	-2.89631616785	-0.427062302984
13.61	-2.88679468325	-0.398146748728
13.62	-2.91476404428	-0.36913895509
13.63	-2.84870874482	-0.340321591145
13.64	-2.96237146732	-0.311266190084
13.65	-2.91476404428	-0.281880512526
13.66	-2.91476404428	-0.252732872083
13.67	-2.90583765246	-0.2236298636
13.68	-2.88679468325	-0.194666701921
13.69	-2.78205835256	-0.166322436742
13.7	-2.79157983717	-0.138454245794
13.71	-2.81062280638	-0.110443232576
13.72	-2.68684350648	-0.0829559010115
13.73	-2.68684350648	-0.0560874659467
13.74	-2.62971459884	-0.0295046754201
13.75	-2.60115014501	-0.00335035170082
13.76	-2.64875756805	0.0228991868645
13.77	-2.64875756805	0.049386762545
13.78	-2.60115014501	0.0756363011103
13.79	-2.60115014501	0.10164780256
13.8	-2.61067162962	0.127706911434
13.81	-2.60115014501	0.153766020307
13.82	-2.61067162962	0.17982512918
13.83	-2.61067162962	0.205931845476
13.84	-2.53509484555	0.231660677852
13.85	-2.52557336094	0.256964018884
13.86	-2.52557336094	0.282219752494
13.87	-2.48748742251	0.307285056411
13.88	-2.42083703025	0.331826678675
13.89	-2.39227257643	0.355892226708
13.9	-2.37322960721	0.379719737626
13.91	-2.29705773035	0.403071174314
13.92	-2.34466515339	0.426279788733
13.93	-2.24945030731	0.449250366036
13.94	-2.24945030731	0.471744869109
13.95	-2.2399288227	0.49419176476
13.96	-2.26849327653	0.516733875256
13.97	-2.22088585349	0.539180770906
13.98	-2.21195946167	0.561344997482
13.99	-2.15483055402	0.58317894756
14	-2.1357875848	0.604632038254
14.01	-2.1357875848	0.625989914102
14.02	-2.16435203863	0.647490612219
14.03	-2.14530906941	0.669038917759
14.04	-2.08818016177	0.690206363915
14.05	-2.02152976951	0.710754913572
14.06	-2.02152976951	0.730970211267
14.07	-2.04057273873	0.751280723808
14.08	-2.00248680029	0.771496021503
14.09	-1.99296531569	0.791473282083
14.1	-1.96440086186	0.811260112971
14.11	-1.95487937726	0.830856514166
14.12	-1.92631492343	0.85026248567
14.13	-1.86978110857	0.86924296583
14.14	-1.86978110857	0.887940776916
14.15	-1.84121665475	0.906495765732
14.16	-1.7840877471	0.924622287741
14.17	-1.77456626249	0.942415557789
14.18	-1.70791587024	0.959827968453
14.19	-1.6603084472	0.97666909004
14.2	-1.60317953955	0.992986529974
14.21	-1.5365291473	1.00868507341
14.22	-1.44190939401	1.02357726611
14.23	-1.36573751715	1.03761550067
14.24	-1.27052267107	1.05079680161
14.25	-1.17590291778	1.06302892956
14.26	-1.10925252552	1.07445470677
14.27	-1.01403767944	1.0850711578
14.28	-0.918822833366	1.09473546036
14.29	-0.814681595468	1.10340298251
14.3	-0.700423780174	1.11097850938
14.31	-0.595687449488	1.11745906553
14.32	-0.44393878855	1.12265719672
14.33	-0.301116519433	1.12638247326
14.34	-0.13032488928	1.12853968031
14.35	0.0124973798374	1.12912881785
14.36	0.155319648955	1.12828973271
14.37	0.259460886853	1.12621583003
14.38	0.326111279108	1.1232879692
14.39	0.354675732931	1.11988403414
14.4	0.345154248324	1.11638488423
14.41	0.345154248324	1.11293334175
14.42	0.335632763716	1.10952940669
14.43	0.326111279108	1.10622068648
14.44	0.354675732931	1.10281675142
14.45	0.364197217539	1.09922238666
14.46	0.430847609794	1.09524716253
14.47	0.507019486657	1.09055782704
14.48	0.582596270731	1.08510974826
14.49	0.649246662986	1.07895053359
14.5	0.706375570633	1.07217242242
14.51	0.773025962888	1.06477541475
14.52	0.849197839751	1.05666429574
14.53	0.877762293574	1.04802949507
14.54	0.924774623825	1.03901681049
14.55	0.953339077649	1.02962624198
14.56	0.99142501608	1.01990242151
14.57	1.00094650069	1.00994056393
14.58	1.02951095451	0.999788276651
14.59	1.06759689294	0.989302737413
14.6	1.10568283137	0.978436338792
14.61	1.12472580059	0.967284295632
14.62	1.15329025441	0.955894215357
14.63	1.14376876981	0.944408920236
14.64	1.14376876981	0.932971232538
14.65	1.15329025441	0.921485937417
14.66	1.15329025441	0.909953034873
14.67	1.18185470824	0.898277310059
14.68	1.20089767745	0.886363548131
14.69	1.24850510049	0.874116534241
14.7	1.29551743074	0.861396421585
14.71	1.32408188457	0.848298425009
14.72	1.37168930761	0.834819569048
14.73	1.40025376143	0.820959853702
14.74	1.44786118447	0.806719278973
14.75	1.50499009211	0.79195502259
14.76	1.4859471229	0.777000336515
14.77	1.57164048437	0.761712398479
14.78	1.58116196898	0.745948386212
14.79	1.60020493819	0.730041551676
14.8	1.61865281462	0.713947262912
14.81	1.58116196898	0.697948188994
14.82	1.59068345359	0.682088961881
14.83	1.60913133001	0.666089887963
14.84	1.60913133001	0.649998574663
14.85	1.60020493819	0.633951893322
14.86	1.58116196898	0.618045058786
14.87	1.56211899976	0.602328653942
14.88	1.53355454594	0.586850286214
14.89	1.51451157672	0.571609955601
14.9	1.49546860751	0.55656005468
14.91	1.50499009211	0.541557761181
14.92	1.4859471229	0.526603075106
14.93	1.4859471229	0.511743603877
14.94	1.46690415368	0.496979347494
14.95	1.45738266908	0.482357913381
14.96	1.45738266908	0.46778408669
14.97	1.43833969986	0.453305474845
14.98	1.42881821525	0.43896968527
14.99	1.43833969986	0.424633895694
15	1.42881821525	0.410298106119
15.01	1.44786118447	0.39591470912
15.02	1.41929673064	0.381578919544
15.03	1.41929673064	0.367385952238
15.04	1.40977524604	0.353240592355
15.05	1.38121079221	0.339285662163
15.06	1.38121079221	0.325473554241
15.07	1.39073227682	0.311613838896
15.08	1.33360336917	0.297992160666
15.09	1.29551743074	0.284846556667
15.1	1.24850510049	0.27212644401
15.11	1.22946213128	0.259736607852
15.12	1.22946213128	0.247441986539
15.13	1.21994064667	0.235194972649
15.14	1.21041916206	0.223043173605
15.15	1.20089767745	0.210986589408
15.16	1.21041916206	0.19893000521
15.17	1.19137619284	0.186921028436
15.18	1.20089767745	0.174959659084
15.19	1.21994064667	0.162855467464
15.2	1.21994064667	0.150656060997
15.21	1.25743149231	0.138269200302
15.22	1.22946213128	0.125834732184
15.23	1.22946213128	0.113540110871
15.24	1.21041916206	0.101340704405
15.25	1.19137619284	0.0893317276302
15.26	1.11520431598	0.0777988250861
15.27	1.11520431598	0.0666467819263
15.28	1.04855392373	0.0558279907277
15.29	1.02951095451	0.0454376663365
15.3	0.962860562257	0.0354758087527
15.31	0.877762293574	0.0262726944735
15.32	0.792068932104	0.0179235383451
15.33	0.639725178378	0.0107645677927
15.34	0.468933548225	0.00522127415972
15.35	0.297546825284	0.00138887229218
15.36	0.0410618336609	-0.000304171002545
15.37	-0.291595034825	0.000948495003276
15.38	-0.662337841743	0.00571815938612
15.39	-1.00451619484	0.014052429569
15.4	-1.21339376342	0.0251419793603
15.41	-1.36573751715	0.0380376357632
15.42	-1.40382345558	0.0518854406268
15.43	-1.57461508573	0.0667776333334
15.44	-1.67935141642	0.0830474658441
15.45	-1.82217368553	0.100555091354
15.46	-1.888228985	0.119107104707
15.47	-1.94535789265	0.138275039095
15.48	-1.97392234647	0.15787144029
15.49	-2.04057273873	0.177943915716
15.5	-2.09770164637	0.198635287642
15.51	-2.15483055402	0.219897948644
15.52	-2.14530906941	0.241398646761
15.53	-2.16435203863	0.262946952301
15.54	-2.20243797706	0.28478090238
15.55	-2.22088585349	0.306897521532
15.56	-2.23040733809	0.32915398749
15.57	-2.2399288227	0.351505668294
15.58	-2.24945030731	0.373952563944
15.59	-2.25897179192	0.39649467444
15.6	-2.25897179192	0.41908439236
15.61	-2.29705773035	0.441864539971
15.62	-2.34466515339	0.46507315439
15.63	-2.354186638	0.488567413347
15.64	-2.354186638	0.512109279727
15.65	-2.38275109182	0.535793968376
15.66	-2.39227257643	0.559669086717
15.67	-2.3637081226	0.583448990212
15.68	-2.30657921496	0.6068004269
15.69	-2.354186638	0.630104256165
15.7	-2.32562218417	0.653503300276
15.71	-2.34466515339	0.676854736963
15.72	-2.30657921496	0.700110958805
15.73	-2.29705773035	0.723129143532
15.74	-2.28753624574	0.746052113412
15.75	-2.2399288227	0.768689438754
15.76	-2.25897179192	0.791183941827
15.77	-2.22088585349	0.813583230054
15.78	-2.21195946167	0.83574745663
15.79	-2.14530906941	0.857533799286
15.8	-2.16435203863	0.879082104826
15.81	-2.07865867716	0.900297158405
15.82	-2.11674461559	0.921274174869
15.83	-2.07865867716	0.942251191332
15.84	-2.04057273873	0.962847348412
15.85	-1.99296531569	0.983015038684
15.86	-1.97392234647	1.00284947699
15.87	-1.99296531569	1.02268391531
15.88	-1.97392234647	1.04251835362
15.89	-1.93583640804	1.06206714739
15.9	-1.888228985	1.08118747435
15.91	-1.89775046961	1.10011737163
15.92	-1.89775046961	1.11909487632
15.93	-1.86978110857	1.13793253421
15.94	-1.86025962397	1.15658273788
15.95	-1.80313071632	1.17489968958
15.96	-1.81265220093	1.19297860416
15.97	-1.77456626249	1.21091469648
15.98	-1.77456626249	1.22866035911
15.99	-1.73648032406	1.24621559204
16	-1.67935141642	1.26329475074
16.01	-1.63174399338	1.27985022779
16.02	-1.61270102416	1.29607245288
16.03	-1.58413657034	1.31205664085
16.04	-1.5365291473	1.32765996944
16.05	-1.51808127087	1.34293302153
16.06	-1.48951681705	1.35797101197
16.07	-1.44190939401	1.37262814302
16.08	-1.38478048636	1.38676159243
16.09	-1.32765157871	1.40032375275
16.1	-1.26100118646	1.41326701658
16.11	-1.19435079421	1.42554377648
16.12	-1.14733846395	1.43725222277
16.13	-1.09020955631	1.44843996287
16.14	-1.02355916405	1.45900880648
16.15	-0.956908771797	1.46891114615
16.16	-0.880736894935	1.47809937449
16.17	-0.786117141644	1.48643364467
16.18	-0.690902295566	1.49381874186
16.19	-0.576644480272	1.50015647574
16.2	-0.415374334727	1.50511656981
16.21	-0.253509096394	1.50846098697
16.22	-0.0827174662409	1.51014211978
16.23	0.117233710524	1.50996953856
16.24	0.335632763716	1.50770520619
16.25	0.53558394048	1.50334912267
16.26	0.715897055241	1.49709171769
16.27	0.89680526279	1.4890282061
16.28	1.06759689294	1.47920619532
16.29	1.19137619284	1.46791132989
16.3	1.49546860751	1.45447710589
16.31	1.74243211452	1.43828760228
16.32	1.96083116771	1.41977128587
16.33	2.21791125213	1.39887757377
16.34	2.36965991306	1.37593971794
16.35	2.541046636	1.3513861852
16.36	2.63626148208	1.32549964461
16.37	2.69279529694	1.29885436071
16.38	2.73088123537	1.27173597805
16.39	2.77848865841	1.24418912858
16.4	2.71183826616	1.21673749396
16.41	2.7689671738	1.18933346676
16.42	2.7594456892	1.16169140244
16.43	2.77848865841	1.1340017307
16.44	2.77848865841	1.10621684412
16.45	2.74040271998	1.07862238723
16.46	2.71183826616	1.0513611823
16.47	2.67375232773	1.02443322933
16.48	2.69279529694	0.997600491205
16.49	2.64578296669	0.970907599887
16.5	2.63626148208	0.944497377643
16.51	2.62673999747	0.918182370246
16.52	2.56961108983	0.892200614809
16.53	2.56008960522	0.866552111334
16.54	2.48391772836	0.841332074666
16.55	2.541046636	0.816207252844
16.56	2.50296069757	0.790987216176
16.57	2.52200366679	0.765862394354
16.58	2.44583178993	0.741023217071
16.59	2.44583178993	0.716564899172
16.6	2.34109545924	0.692630262926
16.61	2.36013842846	0.669124093487
16.62	2.27504015977	0.645948200546
16.63	2.25599719056	0.623293013794
16.64	2.23695422134	0.600828256735
16.65	2.21791125213	0.578553929368
16.66	2.16078234448	0.556660461384
16.67	2.10365343683	0.535338282478
16.68	2.08461046762	0.514396962956
16.69	2.03700304458	0.493788895395
16.7	1.98939562154	0.473656902064
16.71	1.97987413693	0.453810553272
16.72	1.95190477589	0.434151658708
16.73	1.90429735286	0.414870648064
16.74	1.87573289903	0.395970496804
16.75	1.82812547599	0.377451204929
16.76	1.76147508374	0.359503202131
16.77	1.7138676607	0.342126488408
16.78	1.64721726844	0.325321063763
16.79	1.60020493819	0.30908395273
16.8	1.56211899976	0.29327233304
16.81	1.49546860751	0.277984395004
16.82	1.45738266908	0.263220138621
16.83	1.42881821525	0.248789134199
16.84	1.39073227682	0.234691381739
16.85	1.32408188457	0.221117310932
16.86	1.29551743074	0.208019314355
16.87	1.22946213128	0.195394416545
16.88	1.20089767745	0.183242617501
16.89	1.14376876981	0.171519285265
16.9	1.12472580059	0.160176812413
16.91	1.06759689294	0.149215198945
16.92	1.02951095451	0.138729659708
16.93	0.981903531472	0.128672587278
16.94	0.953339077649	0.118996374233
16.95	0.915253139217	0.109653413148
16.96	0.877762293574	0.100688335984
16.97	0.849197839751	0.0920535353177
16.98	0.811111901319	0.0837519866124
16.99	0.801590416711	0.0756884750222
17	0.76350447828	0.0678630005472
17.01	0.753982993672	0.0602755631875
17.02	0.715897055241	0.0529261629429
17.03	0.668289632202	0.0460052295057
17.04	0.649246662986	0.0394175480298
17.05	0.620682209163	0.033067903669
17.06	0.611160724555	0.0269086890004
17.07	0.592117755339	0.020892296601
17.08	0.601639239947	0.0149235116245
17.09	0.582596270731	0.00900233407114
17.1	0.563553301516	0.00327158620991
17.11	0.53558394048	-0.00222410000007
17.12	0.497498002049	-0.00738950971272
17.13	0.44989057901	-0.012126452618
17.14	0.430847609794	-0.016530143562
17.15	0.411804640578	-0.0207434048139
17.16	0.392761671363	-0.0247662363736
17.17	0.354675732931	-0.0285034233951
17.18	0.345154248324	-0.0320025733013
17.19	0.335632763716	-0.0354065083615
17.2	0.3165897945	-0.0386676211526
17.21	0.307068309892	-0.0417859116746
17.22	0.297546825284	-0.0448089873505
17.23	0.268982371461	-0.0476416333342
17.24	0.259460886853	-0.0502838496258
17.25	0.240417917637	-0.0527832436482
17.26	0.212448556602	-0.0550475760194
17.27	0.183884102778	-0.0570292393163
17.28	0.155319648955	-0.058725258075
17.29	0.126755195131	-0.0601356322954
17.3	0.107712225916	-0.0613079694006
17.31	0.0791477720923	-0.0622422693907
17.32	0.0410618336609	-0.0628433174194
17.33	0.00297589522961	-0.0630635060639
17.34	-0.00654558937822	-0.0630456575931
17.35	-0.0255885585939	-0.0628849868533
17.36	-0.0446315278095	-0.0625338864213
17.37	-0.0636744970252	-0.0619923562971
17.38	-0.0636744970252	-0.0613556113268
17.39	-0.073195981633	-0.0606712589336
17.4	-0.0922389508487	-0.0598440842711
17.41	-0.0922389508487	-0.0589216947627
17.42	-0.111281920064	-0.0579040904081
17.43	-0.111281920064	-0.0567912712075
17.44	-0.111281920064	-0.0556784520068
17.45	-0.101760435457	-0.0546132402292
17.46	-0.111281920064	-0.0535480284516
17.47	-0.101760435457	-0.052482816674
17.48	-0.0922389508487	-0.0515128197425
17.49	-0.101760435457	-0.0505428228109
17.5	-0.0922389508487	-0.0495728258794
17.51	-0.0922389508487	-0.0486504363709
17.52	-0.073195981633	-0.0478232617085
17.53	-0.0922389508487	-0.0469960870461
17.54	-0.0827174662409	-0.0461213049607
17.55	-0.073195981633	-0.0453417377213
17.56	-0.0827174662409	-0.0445621704819
17.57	-0.073195981633	-0.0437826032426
17.58	-0.073195981633	-0.0430506434262
17.59	-0.073195981633	-0.0423186836099
17.6	-0.0827174662409	-0.0415391163705
17.61	-0.073195981633	-0.0407595491312
17.62	-0.073195981633	-0.0400275893148
17.63	-0.0827174662409	-0.0392480220755
17.64	-0.073195981633	-0.0384684548361
17.65	-0.073195981633	-0.0377364950198
17.66	-0.0636744970252	-0.0370521426265
17.67	-0.073195981633	-0.0363677902332
17.68	-0.073195981633	-0.0356358304168
17.69	-0.073195981633	-0.0349038706005
17.7	-0.073195981633	-0.0341719107842
17.71	-0.073195981633	-0.0334399509679
17.72	-0.073195981633	-0.0327079911515
17.73	-0.0636744970252	-0.0320236387582
17.74	-0.073195981633	-0.0313392863649
17.75	-0.073195981633	-0.0306073265486
17.76	-0.0827174662409	-0.0298277593092
17.77	-0.0636744970252	-0.0290957994929
17.78	-0.073195981633	-0.0284114470996
17.79	-0.0636744970252	-0.0277270947063
17.8	-0.073195981633	-0.027042742313
17.81	-0.0636744970252	-0.0263583899197
17.82	-0.0636744970252	-0.0257216449495
17.83	-0.073195981633	-0.0250372925562
17.84	-0.073195981633	-0.0243053327399
17.85	-0.0827174662409	-0.0235257655005
17.86	-0.0827174662409	-0.0226985908381
17.87	-0.073195981633	-0.0219190235987
17.88	-0.0827174662409	-0.0211394563594
17.89	-0.0636744970252	-0.020407496543
17.9	-0.073195981633	-0.0197231441497
17.91	-0.073195981633	-0.0189911843334
17.92	-0.073195981633	-0.0182592245171
17.93	-0.0636744970252	-0.0175748721238
17.94	-0.0636744970252	-0.0169381271535
17.95	-0.073195981633	-0.0162537747602
17.96	-0.073195981633	-0.0155218149439
17.97	-0.0636744970252	-0.0148374625506
17.98	-0.073195981633	-0.0141531101573
17.99	-0.073195981633	-0.013421150341
18	-0.0636744970252	-0.0127367979477
18.01	-0.073195981633	-0.0120524455544
18.02	-0.0636744970252	-0.0113680931611
18.03	-0.0636744970252	-0.0107313481909
18.04	-0.073195981633	-0.0100469957976
18.05	-0.073195981633	-0.00931503598125
18.06	-0.0636744970252	-0.00863068358796
18.07	-0.0636744970252	-0.00799393861771
18.08	-0.0636744970252	-0.00735719364746
18.09	-0.073195981633	-0.00667284125417
18.1	-0.0636744970252	-0.00598848886088
18.11	-0.0636744970252	-0.00535174389063
18.12	-0.073195981633	-0.00466739149733
18.13	-0.073195981633	-0.003935431681
18.14	-0.0827174662409	-0.00315586444163
18.15	-0.073195981633	-0.00237629720227
18.16	-0.073195981633	-0.00164433738593
18.17	-0.073195981633	-0.000912377569605
18.18	-0.0827174662409	-0.000132810330236
18.19	-0.073195981633	0.000646756909134
18.2	-0.0827174662409	0.0014263241485
18.21	-0.0827174662409	0.00225349881091
18.22	-0.0827174662409	0.00308067347332
18.23	-0.0827174662409	0.00390784813573
18.24	-0.0922389508487	0.00478263022118
18.25	-0.073195981633	0.00560980488359
18.26	-0.0922389508487	0.006436979546
18.27	-0.0827174662409	0.00731176163144
18.28	-0.0922389508487	0.00818654371689
18.29	-0.073195981633	0.0090137183793
18.3	-0.0922389508487	0.00984089304171
18.31	-0.073195981633	0.0106680677041
18.32	-0.073195981633	0.0114000275204
18.33	-0.073195981633	0.0121319873368
18.34	-0.073195981633	0.0128639471531
18.35	-0.0636744970252	0.0135482995464
18.36	-0.073195981633	0.0142326519397
18.37	-0.0541530124174	0.0148693969099
18.38	-0.0636744970252	0.0154585344572
18.39	-0.0636744970252	0.0160952794274
18.4	-0.0636744970252	0.0167320243977
18.41	-0.0636744970252	0.0173687693679
18.42	-0.0636744970252	0.0180055143382
18.43	-0.073195981633	0.0186898667315
18.44	-0.0636744970252	0.0193742191247
18.45	-0.0636744970252	0.020010964095
18.46	-0.0636744970252	0.0206477090652
18.47	-0.0636744970252	0.0212844540355
18.48	-0.0636744970252	0.0219211990058
18.49	-0.0636744970252	0.022557943976
18.5	-0.0636744970252	0.0231946889463
18.51	-0.0636744970252	0.0238314339165
18.52	-0.073195981633	0.0245157863098
18.53	-0.073195981633	0.0252477461261
18.54	-0.0636744970252	0.0259320985194
18.55	-0.0636744970252	0.0265688434897
18.56	-0.0636744970252	0.0272055884599
18.57	-0.0636744970252	0.0278423334302
18.58	-0.073195981633	0.0285266858235
18.59	-0.0636744970252	0.0292110382168
18.6	-0.0636744970252	0.029847783187
18.61	-0.0636744970252	0.0304845281573
18.62	-0.0636744970252	0.0311212731275
18.63	-0.0636744970252	0.0317580180978
18.64	-0.0636744970252	0.032394763068
18.65	-0.0636744970252	0.0330315080383
18.66	-0.0636744970252	0.0336682530085
18.67	-0.0636744970252	0.0343049979788
18.68	-0.073195981633	0.0349893503721
18.69	-0.0636744970252	0.0356737027654
18.7	-0.0636744970252	0.0363104477356
18.71	-0.0636744970252	0.0369471927059
18.72	-0.0636744970252	0.0375839376761
18.73	-0.073195981633	0.0382682900694
18.74	-0.0636744970252	0.0389526424627
18.75	-0.0636744970252	0.0395893874329
18.76	-0.073195981633	0.0402737398262
18.77	-0.0636744970252	0.0409580922195
18.78	-0.073195981633	0.0416424446128
18.79	-0.0636744970252	0.0423267970061
18.8	-0.0636744970252	0.0429635419764
18.81	-0.0636744970252	0.0436002869466
18.82	-0.0636744970252	0.0442370319169
18.83	-0.073195981633	0.0449213843102
18.84	-0.0636744970252	0.0456057367034
18.85	-0.0636744970252	0.0462424816737
18.86	-0.073195981633	0.046926834067
18.87	-0.073195981633	0.0476587938833
18.88	-0.073195981633	0.0483907536997
18.89	-0.073195981633	0.049122713516
18.9	-0.073195981633	0.0498546733323
18.91	-0.0636744970252	0.0505390257256
18.92	-0.0636744970252	0.0511757706959
18.93	-0.0636744970252	0.0518125156661
18.94	-0.0636744970252	0.0524492606364
18.95	-0.0636744970252	0.0530860056066
18.96	-0.073195981633	0.0537703579999
18.97	-0.0636744970252	0.0544547103932
18.98	-0.0636744970252	0.0550914553634
18.99	-0.0636744970252	0.0557282003337
19	-0.0636744970252	0.0563649453039
19.01	-0.0636744970252	0.0570016902742
19.02	-0.0636744970252	0.0576384352445
19.03	-0.0636744970252	0.0582751802147
19.04	-0.0636744970252	0.058911925185
19.05	-0.0636744970252	0.0595486701552
19.06	-0.073195981633	0.0602330225485
19.07	-0.0636744970252	0.0609173749418
19.08	-0.0636744970252	0.061554119912
19.09	-0.073195981633	0.0622384723053
19.1	-0.0636744970252	0.0629228246986
19.11	-0.0636744970252	0.0635595696689
19.12	-0.073195981633	0.0642439220622
19.13	-0.0636744970252	0.0649282744555
19.14	-0.0636744970252	0.0655650194257
19.15	-0.0636744970252	0.066201764396
19.16	-0.0636744970252	0.0668385093662
19.17	-0.0636744970252	0.0674752543365
19.18	-0.073195981633	0.0681596067298
19.19	-0.073195981633	0.0688915665461
19.2	-0.073195981633	0.0696235263624
19.21	-0.0636744970252	0.0703078787557
19.22	-0.0636744970252	0.070944623726
19.23	-0.0636744970252	0.0715813686962
19.24	-0.0636744970252	0.0722181136665
19.25	-0.0636744970252	0.0728548586367
19.26	-0.0636744970252	0.073491603607
19.27	-0.073195981633	0.0741759560003
19.28	-0.0636744970252	0.0748603083936
19.29	-0.0541530124174	0.0754494459408
19.3	-0.073195981633	0.076086190911
19.31	-0.0636744970252	0.0767705433043
19.32	-0.0636744970252	0.0774072882746
19.33	-0.0636744970252	0.0780440332448
19.34	-0.0636744970252	0.0786807782151
19.35	-0.0541530124174	0.0792699157623
19.36	-0.073195981633	0.0799066607325
19.37	-0.073195981633	0.0806386205489
19.38	-0.0636744970252	0.0813229729421
19.39	-0.0636744970252	0.0819597179124
19.4	-0.0636744970252	0.0825964628827
19.41	-0.0636744970252	0.0832332078529
19.42	-0.0636744970252	0.0838699528232
19.43	-0.0636744970252	0.0845066977934
19.44	-0.0636744970252	0.0851434427637
19.45	-0.0636744970252	0.0857801877339
19.46	-0.073195981633	0.0864645401272
19.47	-0.073195981633	0.0871964999435
19.48	-0.073195981633	0.0879284597599
19.49	-0.0636744970252	0.0886128121532
19.5	-0.0636744970252	0.0892495571234
19.51	-0.0636744970252	0.0898863020937
19.52	-0.073195981633	0.0905706544869
19.53	-0.0636744970252	0.0912550068802
19.54	-0.0636744970252	0.0918917518505
19.55	-0.0636744970252	0.0925284968207
19.56	-0.0636744970252	0.093165241791
19.57	-0.073195981633	0.0938495941843
19.58	-0.0636744970252	0.0945339465776
19.59	-0.073195981633	0.0952182989709
19.6	-0.073195981633	0.0959502587872
19.61	-0.073195981633	0.0966822186035
19.62	-0.073195981633	0.0974141784199
19.63	-0.073195981633	0.0981461382362
19.64	-0.0827174662409	0.0989257054756
19.65	-0.073195981633	0.0997052727149
19.66	-0.0827174662409	0.100484839954
19.67	-0.0827174662409	0.101312014617
19.68	-0.0922389508487	0.102186796702
19.69	-0.0827174662409	0.103061578788
19.7	-0.073195981633	0.103841146027
19.71	-0.073195981633	0.104573105843
19.72	-0.0636744970252	0.105257458237
19.73	-0.073195981633	0.10594181063
19.74	-0.073195981633	0.106673770446
19.75	-0.073195981633	0.107405730263
19.76	-0.0827174662409	0.108185297502
19.77	-0.073195981633	0.108964864741
19.78	-0.0827174662409	0.109744431981
19.79	-0.073195981633	0.11052399922
19.8	-0.073195981633	0.111255959036
19.81	-0.073195981633	0.111987918853
19.82	-0.0636744970252	0.112672271246
19.83	-0.073195981633	0.113356623639
19.84	-0.073195981633	0.114088583456
19.85	-0.073195981633	0.114820543272
19.86	-0.0636744970252	0.115504895665
19.87	-0.073195981633	0.116189248059
19.88	-0.073195981633	0.116921207875
19.89	-0.073195981633	0.117653167691
19.9	-0.0827174662409	0.118432734931
19.91	-0.073195981633	0.11921230217
19.92	-0.0636744970252	0.119896654563
19.93	-0.073195981633	0.120581006956
19.94	-0.0636744970252	0.12126535935
19.95	-0.0636744970252	0.12190210432
19.96	-0.0541530124174	0.122491241867
19.97	-0.0636744970252	0.123080379414
19.98	-0.0636744970252	0.123717124385
19.99	-0.0636744970252	0.124353869355
20	-0.0636744970252	0.124990614325
