Vernier Format 2
rest_spirom2.cmbl 10/05/20 16:23 .
Latest
Tiempo	Tasa de Flujo	Volumen
t	Flujo	Vol
s	L/s	L

0	-0.0636744970252	-0
0.01	-0.0922389508487	0.00077956723937
0.02	-0.101760435457	0.0017495641709
0.03	-0.13032488928	0.00290999079458
0.04	-0.148772765708	0.00430547906952
0.05	-0.148772765708	0.0057932067266
0.06	-0.167815734923	0.00737614922976
0.07	-0.167815734923	0.00905430657899
0.08	-0.177337219531	0.0107800713513
0.09	-0.158294250316	0.0124582287005
0.1	-0.148772765708	0.0139935637806
0.11	-0.1392512811	0.0154336840147
0.12	-0.120803404672	0.0167339574435
0.13	-0.120803404672	0.0179419914902
0.14	-0.101760435457	0.0190548106909
0.15	-0.101760435457	0.0200724150454
0.16	-0.0827174662409	0.0209948045539
0.17	-0.0636744970252	0.0217267643703
0.18	-0.0636744970252	0.0223635093405
0.19	-0.073195981633	0.0230478617338
0.2	-0.0827174662409	0.0238274289732
0.21	-0.101760435457	0.0247498184817
0.22	-0.13032488928	0.0259102451054
0.23	-0.148772765708	0.0273057333803
0.24	-0.1392512811	0.0287458536143
0.25	-0.120803404672	0.0300461270432
0.26	-0.101760435457	0.0311589462438
0.27	-0.0827174662409	0.0320813357523
0.28	-0.0827174662409	0.0329085104147
0.29	-0.0636744970252	0.0336404702311
0.3	-0.0255885585939	0.0340867855092
0.31	-0.0160670739861	0.0342950636721
0.32	-0.0160670739861	0.0344557344119
0.33	-0.0160670739861	0.0346164051518
0.34	-0.0255885585939	0.0348246833147
0.35	-0.0160670739861	0.0350329614776
0.36	-0.0160670739861	0.0351936322174
0.37	-0.0160670739861	0.0353543029573
0.38	-0.0160670739861	0.0355149736972
0.39	-0.0255885585939	0.0357232518601
0.4	-0.0255885585939	0.035979137446
0.41	-0.0255885585939	0.0362350230319
0.42	-0.0255885585939	0.0364909086179
0.43	-0.0351100432017	0.0367944016269
0.44	-0.0351100432017	0.0371455020589
0.45	-0.0255885585939	0.0374489950679
0.46	-0.0255885585939	0.0377048806538
0.47	-0.0255885585939	0.0379607662397
0.48	-0.0255885585939	0.0382166518257
0.49	-0.0351100432017	0.0385201448347
0.5	-0.0160670739861	0.0387760304206
0.51	-0.0255885585939	0.0389843085835
0.52	-0.0255885585939	0.0392401941694
0.53	-0.0255885585939	0.0394960797554
0.54	-0.0160670739861	0.0397043579183
0.55	-0.0160670739861	0.0398650286581
0.56	-0.0160670739861	0.040025699398
0.57	-0.0160670739861	0.0401863701379
0.58	-0.0255885585939	0.0403946483008
0.59	-0.0160670739861	0.0406029264637
0.6	-0.0255885585939	0.0408112046266
0.61	-0.0446315278095	0.0411623050586
0.62	-0.0446315278095	0.0416086203367
0.63	-0.0636744970252	0.0421501504608
0.64	-0.0541530124174	0.0427392880081
0.65	-0.0446315278095	0.0432332107092
0.66	-0.0636744970252	0.0437747408334
0.67	-0.0541530124174	0.0443638783806
0.68	-0.0541530124174	0.0449054085047
0.69	-0.0446315278095	0.0453993312059
0.7	-0.0351100432017	0.0457980390609
0.71	-0.0351100432017	0.046149139493
0.72	-0.0255885585939	0.0464526325019
0.73	-0.0351100432017	0.0467561255109
0.74	-0.0351100432017	0.0471072259429
0.75	-0.0351100432017	0.0474583263749
0.76	-0.0351100432017	0.047809426807
0.77	-0.0255885585939	0.0481129198159
0.78	-0.0160670739861	0.0483211979788
0.79	-0.0160670739861	0.0484818687187
0.8	-0.00654558937822	0.0485949320355
0.81	-0.00654558937822	0.0486603879293
0.82	0.00297589522961	0.0486782364
0.83	0.0124973798374	0.0486008700247
0.84	0.00297589522961	0.0485235036494
0.85	0.00297589522961	0.0484937446971
0.86	0.0124973798374	0.0484163783217
0.87	0.0124973798374	0.0482914045234
0.88	0.0124973798374	0.048166430725
0.89	0.0124973798374	0.0480414569266
0.9	0.00297589522961	0.0479640905513
0.91	-0.0160670739861	0.0480295464451
0.92	-0.0160670739861	0.0481902171849
0.93	-0.0160670739861	0.0483508879248
0.94	-0.0255885585939	0.0485591660877
0.95	-0.0255885585939	0.0488150516736
0.96	-0.0636744970252	0.0492613669517
0.97	-0.0922389508487	0.0500409341911
0.98	-0.120803404672	0.0511061459687
0.99	-0.13032488928	0.0523617874385
1	-0.148772765708	0.0537572757134
1.01	-0.1392512811	0.0551973959474
1.02	-0.120803404672	0.0564976693763
1.03	-0.13032488928	0.0577533108461
1.04	-0.120803404672	0.0590089523158
1.05	-0.120803404672	0.0602169863625
1.06	-0.111281920064	0.0613774129862
1.07	-0.120803404672	0.0625378396099
1.08	-0.111281920064	0.0636982662336
1.09	-0.1392512811	0.0649509322394
1.1	-0.148772765708	0.0663910524734
1.11	-0.167815734923	0.0679739949766
1.12	-0.186858704139	0.0697473671719
1.13	-0.215423157963	0.0717587764824
1.14	-0.263030581002	0.0741510451772
1.15	-0.320159488649	0.0770669955255
1.16	-0.396331365511	0.0806494497963
1.17	-0.481429634194	0.0850382547948
1.18	-0.605208934096	0.0904714476363
1.19	-0.71946674939	0.0970948260537
1.2	-0.842650956503	0.104905414583
1.21	-0.937865802582	0.113807998379
1.22	-1.05212361788	0.123757945481
1.23	-1.16638143317	0.134850470736
1.24	-1.28004415568	0.14708259868
1.25	-1.46095236322	0.160787581275
1.26	-1.51808127087	0.175682749445
1.27	-1.62222250877	0.191384268344
1.28	-1.73648032406	0.208177782508
1.29	-1.77456626249	0.22573301544
1.3	-1.85073813936	0.24385953745
1.31	-1.86978110857	0.262462133689
1.32	-1.93583640804	0.281490221272
1.33	-1.94535789265	0.300896192776
1.34	-1.97392234647	0.320492593971
1.35	-1.98344383108	0.340279424859
1.36	-2.09770164637	0.360685152246
1.37	-2.04057273873	0.381376524172
1.38	-2.07865867716	0.401972681251
1.39	-2.08818016177	0.422806875446
1.4	-2.10722313098	0.44378389191
1.41	-2.07865867716	0.464713300951
1.42	-2.05961570794	0.485404672876
1.43	-2.03105125412	0.505858007686
1.44	-2.06913719255	0.52635894992
1.45	-2.08818016177	0.547145536691
1.46	-2.07865867716	0.567979730886
1.47	-2.1357875848	0.589051962196
1.48	-2.14530906941	0.610457445467
1.49	-2.19291649245	0.632148573276
1.5	-2.21195946167	0.654172953047
1.51	-2.19291649245	0.676197332817
1.52	-2.19291649245	0.698126497742
1.53	-2.18339500784	0.720008055243
1.54	-2.15483055402	0.741699183053
1.55	-2.07865867716	0.762866629208
1.56	-2.05009422333	0.783510393711
1.57	-1.97392234647	0.80363047656
1.58	-1.91679343882	0.823084055486
1.59	-1.83169517014	0.841826498531
1.6	-1.74600180867	0.859714983425
1.61	-1.69839438563	0.876936964397
1.62	-1.65078696259	0.893682871138
1.63	-1.64126547799	0.910143133341
1.64	-1.64126547799	0.926555788121
1.65	-1.56509360112	0.942587583516
1.66	-1.58413657034	0.958333734373
1.67	-1.51808127087	0.973844823579
1.68	-1.5365291473	0.98911787567
1.69	-1.54605063191	1.00453077457
1.7	-1.54605063191	1.01999128089
1.71	-1.54605063191	1.0354517872
1.72	-1.56509360112	1.05100750837
1.73	-1.55557211651	1.06661083696
1.74	-1.50855978626	1.08193149647
1.75	-1.48951681705	1.09692187949
1.76	-1.44190939401	1.11157901054
1.77	-1.42286642479	1.12590288964
1.78	-1.38478048636	1.13994112419
1.79	-1.33717306332	1.15355089194
1.8	-1.31813009411	1.16682740773
1.81	-1.26100118646	1.17972306413
1.82	-1.23243673264	1.19219025373
1.83	-1.1848293096	1.20427658394
1.84	-1.13781697935	1.21588981538
1.85	-1.06164510248	1.22688712579
1.86	-0.975951741013	1.23707511001
1.87	-0.909301348758	1.24650137546
1.88	-0.80516011086	1.25507368276
1.89	-0.67185932635	1.26245877994
1.9	-0.548080026449	1.26855847671
1.91	-0.367766911688	1.2731377114
1.92	-0.205901673355	1.27600605432
1.93	-0.0351100432017	1.27721111291
1.94	0.193405587386	1.27641963518
1.95	0.392761671363	1.27348879889
1.96	0.545105425088	1.26879946341
1.97	0.668289632202	1.26273248812
1.98	0.773025962888	1.25552591015
1.99	0.849197839751	1.24741479113
2	0.887283778182	1.23873238304
2.01	1.03903243912	1.22910080196
2.02	1.09616134677	1.21842483303
2.03	1.18185470824	1.20703475275
2.04	1.24850510049	1.19488295371
2.05	1.33360336917	1.18197241136
2.06	1.362167823	1.1684935554
2.07	1.43833969986	1.15449101779
2.08	1.47642563829	1.13991719109
2.09	1.53355454594	1.12486729017
2.1	1.56211899976	1.10938892245
2.11	1.60020493819	1.09357730276
2.12	1.60913133001	1.07753062141
2.13	1.67578172227	1.06110605615
2.14	1.68530320688	1.04430063151
2.15	1.73291062991	1.02720956232
2.16	1.78051805295	1.00964241891
2.17	1.77099656835	0.991884845803
2.18	1.79956102217	0.97403205785
2.19	1.8376469606	0.955846017936
2.2	1.82812547599	0.937517155753
2.21	1.82812547599	0.919235900993
2.22	1.80908250678	0.901049861079
2.23	1.82812547599	0.882863821166
2.24	1.80908250678	0.864677781252
2.25	1.80908250678	0.846586956184
2.26	1.79003953756	0.828591345962
2.27	1.76147508374	0.810833772856
2.28	1.74243211452	0.793314236864
2.29	1.7138676607	0.776032737988
2.3	1.74243211452	0.758751239112
2.31	1.65673875305	0.741755384774
2.32	1.65673875305	0.725187997244
2.33	1.60913133001	0.708858646829
2.34	1.56211899976	0.69300239518
2.35	1.53355454594	0.677524027451
2.36	1.52403306133	0.662236089415
2.37	1.50499009211	0.647090973648
2.38	1.4859471229	0.632136287573
2.39	1.43833969986	0.617514853459
2.4	1.42881821525	0.603179063883
2.41	1.40977524604	0.588986096577
2.42	1.40977524604	0.574888344116
2.43	1.40025376143	0.560838199079
2.44	1.37168930761	0.546978483734
2.45	1.37168930761	0.533261590658
2.46	1.34312485378	0.519687519851
2.47	1.34312485378	0.506256271313
2.48	1.32408188457	0.492920237621
2.49	1.32408188457	0.479679418776
2.5	1.28599594613	0.466629029622
2.51	1.25743149231	0.45391189243
2.52	1.24850510049	0.441382209466
2.53	1.21994064667	0.42903998073
2.54	1.18185470824	0.417031003956
2.55	1.16281173902	0.405307671719
2.56	1.12472580059	0.393869984021
2.57	1.07711837755	0.38286076313
2.58	1.0104679853	0.372422831316
2.59	0.981903531472	0.362460973732
2.6	0.89680526279	0.353067429761
2.61	0.820633385927	0.344480236517
2.62	0.696854086025	0.336892799158
2.63	0.582596270731	0.330495547374
2.64	0.392761671363	0.325618757663
2.65	0.155319648955	0.322878351062
2.66	-0.120803404672	0.32270576984
2.67	-0.424895819335	0.325434265961
2.68	-0.748031203213	0.331298901073
2.69	-0.966430256405	0.339871208371
2.7	-1.09973104091	0.350202014858
2.71	-1.16638143317	0.361532577228
2.72	-1.0806880717	0.372767924753
2.73	-1.12829549474	0.383812842585
2.74	-1.21339376342	0.395521288876
2.75	-1.25147970185	0.407845656202
2.76	-1.3086086095	0.420646097759
2.77	-1.29908712489	0.433684576431
2.78	-1.34669454793	0.446913484795
2.79	-1.40382345558	0.460666074812
2.8	-1.4323879094	0.474847131637
2.81	-1.47999533244	0.489409047846
2.82	-1.47047384783	0.504161393748
2.83	-1.48951681705	0.518961347072
2.84	-1.51808127087	0.533999337512
2.85	-1.51808127087	0.549180150221
2.86	-1.52700766269	0.564405594888
2.87	-1.55557211651	0.579818493784
2.88	-1.56509360112	0.595421822372
2.89	-1.55557211651	0.611025150961
2.9	-1.55557211651	0.626580872126
2.91	-1.54605063191	0.642088985868
2.92	-1.56509360112	0.657644707033
2.93	-1.55557211651	0.673248035621
2.94	-1.54605063191	0.688756149363
2.95	-1.54605063191	0.704216655682
2.96	-1.55557211651	0.719724769424
2.97	-1.55557211651	0.73528049059
2.98	-1.57461508573	0.750931426601
2.99	-1.57461508573	0.766677577458
3	-1.57461508573	0.782423728315
3.01	-1.56509360112	0.79812227175
3.02	-1.54605063191	0.813677992915
3.03	-1.54605063191	0.829138499234
3.04	-1.55557211651	0.844646612976
3.05	-1.54605063191	0.860154726718
3.06	-1.51808127087	0.875475386232
3.07	-1.48951681705	0.890513376672
3.08	-1.45143087862	0.90521811515
3.09	-1.44190939401	0.919684816513
3.1	-1.41334494019	0.933961088184
3.11	-1.42286642479	0.948142145009
3.12	-1.40382345558	0.962275594411
3.13	-1.41334494019	0.97636143639
3.14	-1.37525900175	0.990304456099
3.15	-1.34669454793	1.00391422385
3.16	-1.36573751715	1.01747638417
3.17	-1.33717306332	1.03099093708
3.18	-1.32765157871	1.04431506029
3.19	-1.29908712489	1.0574487538
3.2	-1.28956564028	1.07039201763
3.21	-1.29908712489	1.08333528146
3.22	-1.28956564028	1.09627854528
3.23	-1.27052267107	1.10907898684
3.24	-1.26100118646	1.12173660613
3.25	-1.26100118646	1.13434661799
3.26	-1.26100118646	1.14695662985
3.27	-1.28004415568	1.15966185657
3.28	-1.26100118646	1.17236708328
3.29	-1.25147970185	1.18492948772
3.3	-1.23243673264	1.19734906989
3.31	-1.21339376342	1.20957822237
3.32	-1.1848293096	1.22156933774
3.33	-1.19435079421	1.23346523825
3.34	-1.1848293096	1.24536113877
3.35	-1.17590291778	1.25716479991
3.36	-1.14733846395	1.26878100682
3.37	-1.12829549474	1.28015917661
3.38	-1.09973104091	1.29129930929
3.39	-1.09020955631	1.30224901228
3.4	-1.04260213327	1.31291307072
3.41	-1.00451619484	1.32314866237
3.42	-0.937865802582	1.33286057235
3.43	-0.852172441111	1.34181076357
3.44	-0.767074172429	1.34990699664
3.45	-0.605208934096	1.35676841217
3.46	-0.44393878855	1.36201415078
3.47	-0.253509096394	1.36550139021
3.48	-0.0255885585939	1.36689687848
3.49	0.23089643303	1.36587033911
3.5	0.459412063617	1.36241879663
3.51	0.639725178378	1.35692311042
3.52	0.801590416711	1.34971653244
3.53	0.915253139217	1.34113231466
3.54	0.953339077649	1.33178935358
3.55	1.11520431598	1.32144663661
3.56	1.21994064667	1.3097709118
3.57	1.30503891535	1.29714601399
3.58	1.38121079221	1.28371476545
3.59	1.43833969986	1.26961701299
3.6	1.4859471229	1.25499557888
3.61	1.53355454594	1.23989807053
3.62	1.57164048437	1.22437209538
3.63	1.59068345359	1.20856047569
3.64	1.68530320688	1.19218054239
3.65	1.68530320688	1.17532751032
3.66	1.7138676607	1.15833165598
3.67	1.74243211452	1.14105015711
3.68	1.77099656835	1.12348301369
3.69	1.79003953756	1.10567783316
3.7	1.79003953756	1.08777743779
3.71	1.82812547599	1.06968661272
3.72	1.80908250678	1.0515005728
3.73	1.82812547599	1.03331453289
3.74	1.79956102217	1.0151761004
3.75	1.80908250678	0.997132882755
3.76	1.79956102217	0.97908966511
3.77	1.82812547599	0.960951232619
3.78	1.79956102217	0.942812800128
3.79	1.78051805295	0.924912404753
3.8	1.77099656835	0.907154831646
3.81	1.77099656835	0.889444865963
3.82	1.73291062991	0.871925329972
3.83	1.70434617609	0.854739045942
3.84	1.67578172227	0.83783840645
3.85	1.69482469148	0.820985374381
3.86	1.64721726844	0.804275164581
3.87	1.63769578384	0.78785059932
3.88	1.60913133001	0.771616463751
3.89	1.60913133001	0.755525150451
3.9	1.60020493819	0.73947846911
3.91	1.59068345359	0.723524027151
3.92	1.57164048437	0.707712407461
3.93	1.57164048437	0.691996002617
3.94	1.57164048437	0.676279597774
3.95	1.60913133001	0.660375738702
3.96	1.57164048437	0.64447187963
3.97	1.58116196898	0.628707867363
3.98	1.57164048437	0.612943855096
3.99	1.59068345359	0.597132235406
4	1.61865281462	0.581085554065
4.01	1.60913133001	0.564946633342
4.02	1.60913133001	0.548855320042
4.03	1.60020493819	0.532808638701
4.04	1.57164048437	0.516949411588
4.05	1.54307603055	0.501375829014
4.06	1.53355454594	0.485992676131
4.07	1.53355454594	0.470657130672
4.08	1.50499009211	0.455464407482
4.09	1.49546860751	0.440462113984
4.1	1.45738266908	0.425697857601
4.11	1.45738266908	0.41112403091
4.12	1.44786118447	0.396597811642
4.13	1.43833969986	0.38216680722
4.14	1.38121079221	0.36806905476
4.15	1.34312485378	0.35444737653
4.16	1.32408188457	0.341111342838
4.17	1.27647446153	0.328108561108
4.18	1.25743149231	0.315439031339
4.19	1.21994064667	0.303052170644
4.2	1.19137619284	0.290995586446
4.21	1.15329025441	0.27927225421
4.22	1.10568283137	0.267977388781
4.23	1.03903243912	0.257253812429
4.24	0.99142501608	0.247101525153
4.25	0.934296108433	0.23747291953
4.26	0.868240808966	0.228460234943
4.27	0.792068932104	0.220158686238
4.28	0.658768147594	0.212904500839
4.29	0.526062455872	0.206980347822
4.3	0.345154248324	0.202624264301
4.31	0.126755195131	0.200264717084
4.32	-0.167815734923	0.200470019783
4.33	-0.538558541841	0.204001891166
4.34	-0.890258379543	0.211145975773
4.35	-1.13781697935	0.221286352568
4.36	-1.32765157871	0.233613695358
4.37	-1.37525900175	0.24712824826
4.38	-1.56509360112	0.261830011275
4.39	-1.72695883946	0.278290273478
4.4	-1.81265220093	0.29598832868
4.41	-1.86978110857	0.314400495227
4.42	-1.93583640804	0.33342858281
4.43	-1.94535789265	0.352834554314
4.44	-1.97392234647	0.372430955509
4.45	-2.02152976951	0.392408216089
4.46	-2.05009422333	0.412766336053
4.47	-2.03105125412	0.433172063441
4.48	-2.11674461559	0.453911042789
4.49	-2.16435203863	0.47531652606
4.5	-2.16435203863	0.496960046446
4.51	-2.14530906941	0.518508351987
4.52	-2.15483055402	0.540009050104
4.53	-2.17387352324	0.56165257049
4.54	-2.1262661002	0.583153268607
4.55	-2.11674461559	0.604368322186
4.56	-2.11674461559	0.625535768342
4.57	-2.09770164637	0.646607999652
4.58	-2.07865867716	0.66748980127
4.59	-2.09770164637	0.688371602887
4.6	-2.07865867716	0.709253404505
4.61	-2.05009422333	0.729897169007
4.62	-2.07865867716	0.75054093351
4.63	-2.03105125412	0.771089483166
4.64	-2.0120082849	0.791304780861
4.65	-2.00248680029	0.811377256287
4.66	-2.00248680029	0.83140212429
4.67	-2.00248680029	0.851426992293
4.68	-1.91679343882	0.871023393489
4.69	-1.97392234647	0.890476972415
4.7	-1.93583640804	0.910025766188
4.71	-1.888228985	0.929146093153
4.72	-1.86025962397	0.947888536198
4.73	-1.86978110857	0.96653873986
4.74	-1.7840877471	0.984808084139
4.75	-1.80313071632	1.00274417646
4.76	-1.76504477789	1.02058505393
4.77	-1.73648032406	1.03809267944
4.78	-1.73648032406	1.05545748268
4.79	-1.71743735485	1.07272707107
4.8	-1.68887290102	1.08975862235
4.81	-1.63174399338	1.10636170682
4.82	-1.62222250877	1.12263153933
4.83	-1.61270102416	1.138806157
4.84	-1.61270102416	1.15493316724
4.85	-1.54605063191	1.17072692552
4.86	-1.47999533244	1.18585715534
4.87	-1.46095236322	1.20056189382
4.88	-1.41334494019	1.21493338034
4.89	-1.36573751715	1.22882879262
4.9	-1.3086086095	1.24220052326
4.91	-1.23243673264	1.25490574997
4.92	-1.16638143317	1.2668998408
4.93	-1.0806880717	1.27813518832
4.94	-0.975951741013	1.28841838739
4.95	-0.861693925719	1.29760661572
4.96	-0.757552687821	1.30570284879
4.97	-0.595687449488	1.31246904947
4.98	-0.415374334727	1.31752435839
4.99	-0.253509096394	1.32086877555
5	-0.0922389508487	1.32259751579
5.01	0.0886692567001	1.32261536426
5.02	0.268982371461	1.32082710612
5.03	0.421326125186	1.31737556363
5.04	0.516540971264	1.31268622815
5.05	0.63020369377	1.30695250483
5.06	0.744461509064	1.30007917881
5.07	0.849197839751	1.29211088207
5.08	0.906326747398	1.28333325913
5.09	1.06759689294	1.27346364093
5.1	1.18185470824	1.26221638292
5.11	1.29551743074	1.24982952223
5.12	1.40977524604	1.23630305884
5.13	1.49546860751	1.22177683958
5.14	1.59068345359	1.20634607927
5.15	1.67578172227	1.19001375339
5.16	1.74243211452	1.17292268421
5.17	1.80908250678	1.1551651111
5.18	1.86621141442	1.1367886415
5.19	1.87573289903	1.11807891993
5.2	1.87573289903	1.09932159094
5.21	1.91381883746	1.08037383226
5.22	1.91381883746	1.06123564388
5.23	1.93286180668	1.04200224066
5.24	1.94238329129	1.02262601517
5.25	1.94238329129	1.00320218226
5.26	1.91381883746	0.983921171614
5.27	1.87573289903	0.964973412932
5.28	1.86621141442	0.946263691364
5.29	1.85668992982	0.927649184643
5.3	1.84716844521	0.909129892768
5.31	1.81860399139	0.890801030585
5.32	1.8376469606	0.872519775825
5.33	1.8376469606	0.854143306219
5.34	1.82812547599	0.835814444036
5.35	1.79003953756	0.817723618968
5.36	1.79003953756	0.799823223593
5.37	1.78051805295	0.78197043564
5.38	1.7138676607	0.764498507072
5.39	1.67578172227	0.747550260157
5.4	1.68530320688	0.730744835511
5.41	1.64721726844	0.714082233135
5.42	1.61865281462	0.69775288272
5.43	1.64721726844	0.681423532304
5.44	1.59068345359	0.665234028694
5.45	1.58116196898	0.649374801581
5.46	1.57164048437	0.633610789314
5.47	1.52403306133	0.618132421586
5.48	1.50499009211	0.602987305819
5.49	1.49546860751	0.587985012321
5.5	1.45738266908	0.573220755938
5.51	1.42881821525	0.558789751516
5.52	1.38121079221	0.544739606479
5.53	1.35264633839	0.531070320826
5.54	1.33360336917	0.517639072288
5.55	1.28599594613	0.504541075711
5.56	1.24850510049	0.491868570478
5.57	1.20089767745	0.479621556589
5.58	1.18185470824	0.46770779466
5.59	1.1342472852	0.456127284693
5.6	1.10568283137	0.44492763411
5.61	1.06759689294	0.434061235489
5.62	1.04855392373	0.423480481405
5.63	1.03903243912	0.413042549591
5.64	1.02951095451	0.402699832623
5.65	1.00094650069	0.392547545347
5.66	0.962860562257	0.382728510032
5.67	0.953339077649	0.373147511833
5.68	0.934296108433	0.363709335902
5.69	0.915253139217	0.354461589664
5.7	0.877762293574	0.3454965125
5.71	0.820633385927	0.337004534102
5.72	0.753982993672	0.329131452204
5.73	0.658768147594	0.322067696498
5.74	0.545105425088	0.316048328635
5.75	0.411804640578	0.311263778306
5.76	0.259460886853	0.307907450669
5.77	0.0601048028766	0.306309622221
5.78	-0.177337219531	0.306895784304
5.79	-0.481429634194	0.310189618572
5.8	-0.842650956503	0.316810021526
5.81	-1.17590291778	0.326902790897
5.82	-1.45143087862	0.340039459879
5.83	-1.54605063191	0.355026867432
5.84	-1.90727195422	0.372293480363
5.85	-2.14530906941	0.392556385481
5.86	-2.38275109182	0.415196686287
5.87	-2.57258569119	0.439973370202
5.88	-2.73445092952	0.466508553306
5.89	-2.87727319864	0.494567173946
5.9	-3.00045740575	0.523955826968
5.91	-3.10519373644	0.554484082679
5.92	-3.1813656133	0.585916879428
5.93	-3.29502833581	0.618298849174
5.94	-3.31407130502	0.651344347378
5.95	-3.33311427424	0.684580275274
5.96	-3.49497951257	0.718720744208
5.97	-3.51402248179	0.75376575418
5.98	-3.71337856576	0.789902759418
5.99	-3.71337856576	0.827036545075
6	-3.64672817351	0.863837078772
6.01	-3.89428677331	0.901542153506
6.02	-3.91332974253	0.940580236085
6.03	-4.12220731111	0.980757921353
6.04	-4.02699246503	1.02150392023
6.05	-4.1031643419	1.06215470427
6.06	-4.2269436418	1.10380524419
6.07	-4.29359403405	1.14640793257
6.08	-4.46438566421	1.19019783106
6.09	-4.55960051029	1.23531776193
6.1	-4.66374174818	1.28143447322
6.11	-4.89225737877	1.32921446886
6.12	-4.70182768661	1.37718489418
6.13	-4.73991362505	1.42439360074
6.14	-4.86369292495	1.47241163349
6.15	-4.9303433172	1.5213818147
6.16	-4.86369292495	1.57035199591
6.17	-4.81608550191	1.61875088805
6.18	-4.93986480181	1.66753063957
6.19	-4.90177886338	1.71673885789
6.2	-4.91130034799	1.76580425395
6.21	-4.84464995573	1.81458400547
6.22	-4.71134917122	1.8623640011
6.23	-4.66374174818	1.9092394557
6.24	-4.73039214044	1.95621012514
6.25	-4.72087065583	2.00346643912
6.26	-4.63577238715	2.05024965434
6.27	-4.6827847174	2.09684243986
6.28	-4.67326323279	2.14362267961
6.29	-4.48342863342	2.18940613894
6.3	-4.34060636431	2.23352631393
6.31	-4.28407254945	2.2766497085
6.32	-4.09364285729	2.31853828554
6.33	-4.13172879572	2.3596651438
6.34	-4.06507840347	2.4006491798
6.35	-3.8752438041	2.44035079083
6.36	-3.68481411194	2.47815108041
6.37	-3.57115138943	2.51443090792
6.38	-3.39976466649	2.5492854882
6.39	-3.19088709791	2.58223874702
6.4	-3.02902185958	2.61333829181
6.41	-2.84870874482	2.64272694483
6.42	-2.63923608344	2.67016666897
6.43	-2.40179406104	2.6953718197
6.44	-2.24945030731	2.71862804154
6.45	-2.06913719255	2.74022097904
6.46	-1.91679343882	2.76015063219
6.47	-1.82217368553	2.77884546782
6.48	-1.59365805495	2.79592462652
6.49	-1.4323879094	2.81105485634
6.5	-1.28956564028	2.82466462409
6.51	-1.16638143317	2.83694435946
6.52	-1.03308064866	2.84794166986
6.53	-0.880736894935	2.85751075758
6.54	-0.738509718605	2.86560699065
6.55	-0.576644480272	2.87218276164
6.56	-0.481429634194	2.87747313222
6.57	-0.367766911688	2.88171911495
6.58	-0.282073550217	2.88496831726
6.59	-0.196380188747	2.88736058595
6.6	-0.0827174662409	2.88875607423
6.61	0.0505833182688	2.88891674497
6.62	0.145798164347	2.88793483755
6.63	0.174362618171	2.88633403364
6.64	0.145798164347	2.88473322973
6.65	0.136276679739	2.88332285551
6.66	0.183884102778	2.88172205159
6.67	0.23089643303	2.87964814891
6.68	0.278503856069	2.87710114747
6.69	0.278503856069	2.87431610891
6.7	0.278503856069	2.87153107035
6.71	0.278503856069	2.86874603179
6.72	0.297546825284	2.86586577838
6.73	0.335632763716	2.86269988044
6.74	0.402283155971	2.85901030084
6.75	0.440369094402	2.85479703959
6.76	0.468933548225	2.85025052637
6.77	0.487976517441	2.84546597604
6.78	0.487976517441	2.84058621087
6.79	0.478455032833	2.83575405312
6.8	0.468933548225	2.83101711021
6.81	0.487976517441	2.82623255988
6.82	0.507019486657	2.82125757986
6.83	0.554626909696	2.81594934788
6.84	0.611160724555	2.81012040971
6.85	0.696854086025	2.80358033566
6.86	0.801590416711	2.79608811314
6.87	0.89680526279	2.78759613475
6.88	1.00094650069	2.77810737593
6.89	1.10568283137	2.76757422927
6.9	1.22946213128	2.75589850446
6.91	1.38121079221	2.74284513984
6.92	1.58116196898	2.72803327603
6.93	1.8376469606	2.71093923138
6.94	2.17982531369	2.69085187001
6.95	2.56008960522	2.66715229542
6.96	2.91178944292	2.63979290018
6.97	3.21588185758	2.60915454368
6.98	3.36763051852	2.57623698179
6.99	3.50093130303	2.54189417269
7	3.54853872607	2.50664682254
7.01	3.61518911833	2.47082818332
7.02	3.62471060293	2.43462868471
7.03	3.65327505676	2.39823875641
7.04	3.65327505676	2.36170600585
7.05	3.67231802597	2.32507804043
7.06	3.65327505676	2.28845007502
7.07	3.53901724146	2.25248861353
7.08	3.62471060293	2.21666997431
7.09	3.65327505676	2.18028004601
7.1	3.78598074848	2.14308376698
7.11	3.70980887162	2.10560481888
7.12	3.71933035622	2.06845912274
7.13	3.72885184083	2.03121821176
7.14	3.77645926387	1.99369165623
7.15	3.83358817152	1.95564141906
7.16	3.95736747142	1.91668664084
7.17	3.95736747142	1.87711296613
7.18	3.86215262534	1.83801536564
7.19	3.86215262534	1.79939383939
7.2	3.85263114073	1.76081992056
7.21	3.76693777926	1.72272207596
7.22	3.70028738701	1.68538595013
7.23	3.67231802597	1.64852292306
7.24	3.70028738701	1.611659896
7.25	3.68183951058	1.57474926151
7.26	3.60566763372	1.53831172579
7.27	3.60566763372	1.50225504945
7.28	3.52949575685	1.4665792325
7.29	3.36763051852	1.43209360112
7.3	3.32061818827	1.39865235759
7.31	3.33013967288	1.36539856828
7.32	3.25396779602	1.33247803094
7.33	3.14923146533	1.30046203463
7.34	3.14923146533	1.26896971998
7.35	3.14923146533	1.23747740533
7.36	3.05401661925	1.2064611649
7.37	3.02545216543	1.17606382098
7.38	2.92131092753	1.14633000551
7.39	2.8832249891	1.11730732593
7.4	2.85466053527	1.08861789831
7.41	2.74992420459	1.06059497461
7.42	2.66423084312	1.03352419937
7.43	2.61721851287	1.00711695259
7.44	2.55056812061	0.981278019424
7.45	2.52200366679	0.955915160487
7.46	2.47439624375	0.930933160934
7.47	2.40774585149	0.906522450458
7.48	2.33157397463	0.882825851328
7.49	2.32205249002	0.859557719004
7.5	2.28456164438	0.836524648332
7.51	2.17982531369	0.814202713542
7.52	2.08461046762	0.792880534635
7.53	1.99891710615	0.772462896767
7.54	1.94238329129	0.752756394779
7.55	1.88525438364	0.733618206405
7.56	1.8376469606	0.715003699684
7.57	1.79003953756	0.696865267193
7.58	1.76147508374	0.679107694086
7.59	1.70434617609	0.661778587787
7.6	1.64721726844	0.645020770564
7.61	1.60020493819	0.628783659531
7.62	1.50499009211	0.61325768438
7.63	1.40977524604	0.598683857689
7.64	1.33360336917	0.584966964613
7.65	1.20089767745	0.57229445938
7.66	1.0104679853	0.561237631066
7.67	0.715897055241	0.552605805863
7.68	0.288025340677	0.547586193884
7.69	-0.272552065609	0.547508827509
7.7	-1.00451619484	0.553894168811
7.71	-1.76504477789	0.567741973674
7.72	-2.23040733809	0.587719234254
7.73	-2.55413781476	0.611641960019
7.74	-2.84870874482	0.638656192816
7.75	-3.00045740575	0.667902023569
7.76	-3.15280115948	0.698668316395
7.77	-3.2855068512	0.730859856449
7.78	-3.21945155173	0.763384648464
7.79	-3.22897303634	0.795626771404
7.8	-3.29502833581	0.828246778265
7.81	-3.19088709791	0.860676355433
7.82	-3.20993006713	0.892680441258
7.83	-3.17184412869	0.924589312238
7.84	-3.21945155173	0.95654579064
7.85	-3.17184412869	0.988502269042
7.86	-3.10519373644	1.01988745837
7.87	-3.08615076722	1.05084418089
7.88	-3.0575863134	1.08156286629
7.89	-2.97189295193	1.11171026262
7.9	-2.94332849811	1.14128636987
7.91	-2.84870874482	1.17024655608
7.92	-2.79157983717	1.19844799899
7.93	-2.76301538335	1.22622097509
7.94	-2.73445092952	1.25370830666
7.95	-2.64875756805	1.28062434915
7.96	-2.73445092952	1.30754039163
7.97	-2.76301538335	1.3350277232
7.98	-2.78205835256	1.36275309188
7.99	-2.79157983717	1.39062128283
8	-2.7058864757	1.41810861439
8.01	-2.64875756805	1.44488183461
8.02	-2.75349389874	1.47189309194
8.03	-2.7058864757	1.49918999381
8.04	-2.7058864757	1.52624885857
8.05	-2.64875756805	1.55302207879
8.06	-2.65827905266	1.57955726189
8.07	-2.62971459884	1.60599723015
8.08	-2.64875756805	1.63238959099
8.09	-2.61067162962	1.65868673697
8.1	-2.5821071758	1.684650631
8.11	-2.57258569119	1.71042409534
8.12	-2.48748742251	1.7357244609
8.13	-2.50653039172	1.76069454998
8.14	-2.45892296868	1.78552181678
8.15	-2.45892296868	1.81011104646
8.16	-2.38275109182	1.83431941677
8.17	-2.42083703025	1.85833735738
8.18	-2.34466515339	1.8821648683
8.19	-2.32562218417	1.90551630498
8.2	-2.19291649245	1.92810899837
8.21	-2.18339500784	1.94999055587
8.22	-2.07865867716	1.97130082429
8.23	-2.0120082849	1.9917541591
8.24	-1.98344383108	2.01173141968
8.25	-1.82217368553	2.03075950727
8.26	-1.75552329328	2.04864799216
8.27	-1.70791587024	2.06596518798
8.28	-1.64126547799	2.08271109472
8.29	-1.58413657034	2.09883810496
8.3	-1.49903830166	2.11425397932
8.31	-1.39430197097	2.12872068068
8.32	-1.25147970185	2.14194958905
8.33	-1.12829549474	2.15384846503
8.34	-0.947387287189	2.16422687894
8.35	-0.71946674939	2.17256114912
8.36	-0.424895819335	2.17828296197
8.37	-0.073195981633	2.18077342097
8.38	0.307068309892	2.17960405933
8.39	0.801590416711	2.1740607657
8.4	1.20089767745	2.16404832523
8.41	1.51451157672	2.15047127896
8.42	1.70434617609	2.13437699019
8.43	2.03700304458	2.11567024409
8.44	2.31253100542	2.09392257384
8.45	2.52200366679	2.06974990048
8.46	2.72135975077	2.04353308339
8.47	2.86418201988	2.01560537454
8.48	2.94987538135	1.98653508753
8.49	3.01593068082	1.95670605722
8.5	3.05401661925	1.92635632072
8.51	3.09210255768	1.89562572483
8.52	3.1111455269	1.86460948441
8.53	3.12066701151	1.83345042172
8.54	3.19683888837	1.80186289222
8.55	3.20636037298	1.76984689591
8.56	3.17779591915	1.73792611445
8.57	3.24444631141	1.7058149033
8.58	3.20636037298	1.67356086988
8.59	3.24444631141	1.64130683646
8.6	3.22540334219	1.60895758819
8.61	3.27301076523	1.57646551765
8.62	3.20636037298	1.54406866196
8.63	3.16827443455	1.51219548792
8.64	3.06353810386	1.48103642523
8.65	3.06353810386	1.45040104419
8.66	3.03497365004	1.41990848542
8.67	3.09210255768	1.38927310438
8.68	3.13018849611	1.35816164911
8.69	3.05401661925	1.32724062354
8.7	3.00640919621	1.29693849446
8.71	2.94987538135	1.26715707157
8.72	2.97843983518	1.23751549549
8.73	2.89274647371	1.20815956395
8.74	2.90226795831	1.17918449179
8.75	2.96891835057	1.14982856024
8.76	3.00640919621	1.11995192251
8.77	3.03497365004	1.08974500828
8.78	2.98796131978	1.05963033343
8.79	2.94987538135	1.02994114992
8.8	2.9968877116	1.00020733446
8.81	3.02545216543	0.970095635071
8.82	3.03497365004	0.939793505994
8.83	3.00640919621	0.909586591763
8.84	2.95939686596	0.879757561452
8.85	2.90226795831	0.850449237331
8.86	2.87370350449	0.821569380017
8.87	2.78801014302	0.793260811779
8.88	2.74992420459	0.765571140041
8.89	2.72135975077	0.738214720264
8.9	2.69279529694	0.711143945026
8.91	2.62673999747	0.684546268554
8.92	2.60769702826	0.658374083425
8.93	2.59817554365	0.632344720565
8.94	2.59817554365	0.606362965129
8.95	2.62673999747	0.580238387423
8.96	2.58865405904	0.554161417141
8.97	2.52200366679	0.528608128512
8.98	2.46487475914	0.503673736382
8.99	2.44583178993	0.479120203637
9	2.46487475914	0.454566670891
9.01	2.39822436689	0.430251175261
9.02	2.32205249002	0.406649790977
9.03	2.31253100542	0.383476873499
9.04	2.25599719056	0.360634232519
9.05	2.21791125213	0.338264690306
9.06	2.17030382909	0.3163236149
9.07	2.16078234448	0.294668184032
9.08	2.11317492144	0.273298397702
9.09	2.09413195222	0.252261863334
9.1	2.10365343683	0.231272936389
9.11	2.05604601379	0.210474439136
9.12	2.05604601379	0.189913978998
9.13	1.95190477589	0.169874225049
9.14	1.90429735286	0.150593214406
9.15	1.85668992982	0.131788277992
9.16	1.82812547599	0.113364200963
9.17	1.73291062991	0.0955590204338
9.18	1.65673875305	0.078610773519
9.19	1.53355454594	0.062659307024
9.2	1.42881821525	0.0478474432181
9.21	1.30503891535	0.0341781575651
9.22	1.14376876981	0.0219341191393
9.23	0.924774623825	0.0115914021711
9.24	0.658768147594	0.00367368831402
9.25	0.354675732931	-0.00139353108861
9.26	-0.0255885585939	-0.00303896696029
9.27	-0.415374334727	-0.000834152493687
9.28	-0.852172441111	0.0055035813855
9.29	-1.16638143317	0.0155963507569
9.3	-1.40382345558	0.0284473752007
9.31	-1.48951681705	0.0429140765638
9.32	-1.66982993181	0.0587108103081
9.33	-1.82217368553	0.0761708283948
9.34	-1.92631492343	0.0949132714396
9.35	-2.0120082849	0.114604887481
9.36	-2.11674461559	0.135248651984
9.37	-2.16435203863	0.156654135255
9.38	-2.20243797706	0.178488085333
9.39	-2.25897179192	0.200795134178
9.4	-2.27801476113	0.223480066943
9.41	-2.32562218417	0.24649825167
9.42	-2.354186638	0.269897295781
9.43	-2.354186638	0.293439162161
9.44	-2.32562218417	0.316838206272
9.45	-2.31610069957	0.34004682069
9.46	-2.30657921496	0.363160220263
9.47	-2.26849327653	0.38603558272
9.48	-2.26849327653	0.408720515486
9.49	-2.2399288227	0.431262625982
9.5	-2.23040733809	0.453614306786
9.51	-2.16435203863	0.475588103669
9.52	-2.14530906941	0.49713640921
9.53	-2.1262661002	0.518494285058
9.54	-2.1357875848	0.539804553483
9.55	-2.07865867716	0.560876784792
9.56	-2.05009422333	0.581520549295
9.57	-2.03105125412	0.601926276682
9.58	-2.03105125412	0.622236789223
9.59	-2.00248680029	0.642404479495
9.6	-2.04057273873	0.662619777191
9.61	-1.96440086186	0.682644645193
9.62	-2.0120082849	0.702526690927
9.63	-1.99296531569	0.72255155893
9.64	-1.99296531569	0.742481212087
9.65	-1.94535789265	0.762172828129
9.66	-1.98344383108	0.781816836747
9.67	-1.93583640804	0.801413237943
9.68	-1.94535789265	0.820819209447
9.69	-1.95487937726	0.840320395796
9.7	-1.97392234647	0.859964404415
9.71	-1.96440086186	0.879656020456
9.72	-1.93583640804	0.899157206806
9.73	-1.92631492343	0.918467963463
9.74	-1.96440086186	0.93792154239
9.75	-1.888228985	0.957184691624
9.76	-1.86978110857	0.975974742092
9.77	-1.86978110857	0.994672553178
9.78	-1.81265220093	1.01308471973
9.79	-1.83169517014	1.03130645658
9.8	-1.81265220093	1.04952819344
9.81	-1.84121665475	1.06779753771
9.82	-1.80313071632	1.08601927457
9.83	-1.77456626249	1.10390775946
9.84	-1.73648032406	1.1214629924
9.85	-1.70791587024	1.13868497337
9.86	-1.6603084472	1.15552609495
9.87	-1.64126547799	1.17203396458
9.88	-1.56509360112	1.18806575998
9.89	-1.55557211651	1.20366908856
9.9	-1.52700766269	1.21908198746
9.91	-1.47047384783	1.23406939501
9.92	-1.41334494019	1.24848848895
9.93	-1.36573751715	1.26238390124
9.94	-1.28956564028	1.27566041703
9.95	-1.24195821724	1.28831803631
9.96	-1.16638143317	1.30035973457
9.97	-1.13781697935	1.31188072663
9.98	-1.06164510248	1.32287803704
9.99	-0.985473225621	1.33311362868
10	-0.89977986415	1.34253989413
10.01	-0.824203080076	1.35115980885
10.02	-0.71946674939	1.358878158
10.03	-0.643294872527	1.36569196611
10.04	-0.567122995664	1.37174405545
10.05	-0.472503242374	1.37694218664
10.06	-0.367766911688	1.38114353741
10.07	-0.234466127178	1.3841547026
10.08	-0.0827174662409	1.38574062057
10.09	0.0791477720923	1.38575846904
10.1	0.278503856069	1.3839702109
10.11	0.459412063617	1.3802806313
10.12	0.620682209163	1.37488015994
10.13	0.76350447828	1.3679592265
10.14	0.877762293574	1.35975289264
10.15	0.943817593041	1.35064499321
10.16	1.09616134677	1.34044509851
10.17	1.21994064667	1.32886458854
10.18	1.33360336917	1.31609686846
10.19	1.42881821525	1.30228476054
10.2	1.51451157672	1.28756811158
10.21	1.60020493819	1.271994529
10.22	1.65673875305	1.25570981055
10.23	1.7138676607	1.23885677848
10.24	1.76147508374	1.22148006476
10.25	1.79956102217	1.20367488423
10.26	1.84716844521	1.18544123689
10.27	1.90429735286	1.1666839079
10.28	1.93286180668	1.1474981121
10.29	1.95190477589	1.12807427919
10.3	1.98939562154	1.1083677772
10.31	1.97987413693	1.08852142841
10.32	2.01796007536	1.06853225735
10.33	2.02748155997	1.04830504917
10.34	2.04652452919	1.02793501873
10.35	2.0655674984	1.00737455859
10.36	2.0655674984	0.986718883605
10.37	2.10365343683	0.965872778929
10.38	2.07508898301	0.94497906683
10.39	2.10365343683	0.924085354731
10.4	2.05604601379	0.903286857477
10.41	2.03700304458	0.882821612186
10.42	2.02748155997	0.862499189163
10.43	2.0655674984	0.842033943871
10.44	2.01796007536	0.821616306002
10.45	2.00843859075	0.801484312672
10.46	2.02748155997	0.781304711918
10.47	1.97035265232	0.761315540857
10.48	1.97987413693	0.74156440691
10.49	1.96083116771	0.721860880387
10.5	1.89477586825	0.702582845207
10.51	1.89477586825	0.683635086525
10.52	1.86621141442	0.664830150111
10.53	1.82812547599	0.646358465659
10.54	1.82812547599	0.6280772109
10.55	1.78051805295	0.610033993255
10.56	1.75195359913	0.592371634994
10.57	1.7138676607	0.575042528695
10.58	1.66626023766	0.558141889203
10.59	1.60913133001	0.541764931365
10.6	1.60020493819	0.525718250024
10.61	1.53355454594	0.510049452603
10.62	1.49546860751	0.494904336836
10.63	1.45738266908	0.480140080453
10.64	1.40977524604	0.465804290878
10.65	1.40977524604	0.451706538417
10.66	1.35264633839	0.437894430495
10.67	1.34312485378	0.424415574534
10.68	1.28599594613	0.411269970535
10.69	1.25743149231	0.398552833343
10.7	1.21994064667	0.386165972648
10.71	1.17233322363	0.374204603296
10.72	1.14376876981	0.362624093329
10.73	1.09616134677	0.351424442746
10.74	1.02951095451	0.34079608124
10.75	1.00094650069	0.330643793964
10.76	0.962860562257	0.320824758649
10.77	0.953339077649	0.311243760449
10.78	0.906326747398	0.301945431324
10.79	0.877762293574	0.293024986119
10.8	0.820633385927	0.284533007722
10.81	0.782547447496	0.276517103555
10.82	0.76350447828	0.268786843926
10.83	0.744461509064	0.261247013989
10.84	0.696854086025	0.254040436014
10.85	0.658768147594	0.247262324846
10.86	0.611160724555	0.240912680485
10.87	0.573074786123	0.234991502931
10.88	0.516540971264	0.229543424144
10.89	0.440369094402	0.224758873816
10.9	0.364197217539	0.220736042256
10.91	0.297546825284	0.217427322042
10.92	0.23089643303	0.214785105751
10.93	0.174362618171	0.212758810495
10.94	0.107712225916	0.211348436274
10.95	0.0315403490531	0.210652173399
10.96	-0.0351100432017	0.21067002187
10.97	-0.111281920064	0.211401981687
10.98	-0.186858704139	0.212892684808
10.99	-0.263030581002	0.215142131233
11	-0.329680973256	0.218105689005
11.01	-0.377288396296	0.221640535852
11.02	-0.424895819335	0.22565145693
11.03	-0.481429634194	0.230183084198
11.04	-0.538558541841	0.235283025078
11.05	-0.567122995664	0.240811432766
11.06	-0.595687449488	0.246625484992
11.07	-0.624251903311	0.252725181756
11.08	-0.614730418703	0.258920093366
11.09	-0.605208934096	0.26501979013
11.1	-0.624251903311	0.271167094317
11.11	-0.624251903311	0.27740961335
11.12	-0.614730418703	0.28360452496
11.13	-0.614730418703	0.289751829147
11.14	-0.595687449488	0.295803918488
11.15	-0.557601511056	0.301570363291
11.16	-0.557601511056	0.307146378401
11.17	-0.538558541841	0.312627178666
11.18	-0.519515572625	0.317917549238
11.19	-0.481429634194	0.322922275272
11.2	-0.481429634194	0.327736571614
11.21	-0.472503242374	0.332506235997
11.22	-0.462981757766	0.337183660997
11.23	-0.509994088017	0.342048540226
11.24	-0.538558541841	0.347291303376
11.25	-0.595687449488	0.352962533332
11.26	-0.700423780174	0.359443089481
11.27	-0.786117141644	0.36687579409
11.28	-0.842650956503	0.37501963458
11.29	-0.89977986415	0.383731788684
11.3	-0.918822833366	0.392824802171
11.31	-0.937865802582	0.402108245351
11.32	-0.928344317974	0.411439295954
11.33	-0.947387287189	0.42081795398
11.34	-0.947387287189	0.430291826852
11.35	-0.909301348758	0.439575270031
11.36	-0.909301348758	0.448668283519
11.37	-0.89977986415	0.457713689583
11.38	-0.871215410327	0.466568665956
11.39	-0.861693925719	0.475233212636
11.4	-0.861693925719	0.483850151893
11.41	-0.824203080076	0.492279636922
11.42	-0.814681595468	0.5004740603
11.43	-0.824203080076	0.508668483678
11.44	-0.842650956503	0.51700275386
11.45	-0.871215410327	0.525572085695
11.46	-0.928344317974	0.534569884336
11.47	-1.01403767944	0.544281794323
11.48	-1.09973104091	0.554850637925
11.49	-1.20387227881	0.566368654524
11.5	-1.38478048636	0.579311918349
11.51	-1.58413657034	0.594156503633
11.52	-1.77456626249	0.610950017797
11.53	-2.04057273873	0.630025712803
11.54	-2.34466515339	0.651951902264
11.55	-2.60115014501	0.676680978756
11.56	-2.8296657756	0.703835058359
11.57	-3.08615076722	0.733414141073
11.58	-3.27598536659	0.765224821742
11.59	-3.4092861511	0.79865117933
11.6	-3.56162990483	0.83350575961
11.61	-3.62768520429	0.869452335156
11.62	-3.72290005037	0.906205261429
11.63	-3.78955044263	0.943767513894
11.64	-3.86572231949	0.982043877705
11.65	-3.82763638106	1.02051067121
11.66	-3.92285122714	1.05926310925
11.67	-3.94189419635	1.09858683637
11.68	-4.02699246503	1.13843126967
11.69	-4.25550809562	1.17984377248
11.7	-4.20790067258	1.22216081632
11.71	-4.20790067258	1.26423982304
11.72	-4.35964933352	1.30707757307
11.73	-4.49295011803	1.35134057033
11.74	-4.58816496411	1.39674614574
11.75	-4.60720793332	1.44272301023
11.76	-4.52151457185	1.48836662275
11.77	-4.78752104809	1.53491180085
11.78	-4.74943510965	1.58259658164
11.79	-4.83512847112	1.63051939955
11.8	-4.82560698652	1.67882307684
11.81	-4.74943510965	1.72669828732
11.82	-4.6827847174	1.77385938645
11.83	-4.6827847174	1.82068723363
11.84	-4.58816496411	1.86704198203
11.85	-4.61672941793	1.91306645394
11.86	-4.47390714881	1.95851963678
11.87	-4.4548641796	2.00316349342
11.88	-4.37869230274	2.04733127583
11.89	-4.29359403405	2.09069270751
11.9	-4.29359403405	2.13362864785
11.91	-4.17933621876	2.17599329912
11.92	-3.83715786567	2.21607576954
11.93	-3.69433559655	2.25373323685
11.94	-3.62768520429	2.29034334086
11.95	-3.54258693561	2.32619470156
11.96	-3.44737208953	2.36114449668
11.97	-3.23849452095	2.39457382973
11.98	-3.0575863134	2.42605423391
11.99	-2.88679468325	2.45577613889
12	-2.68684350648	2.48364432984
12.01	-2.62019311423	2.51017951294
12.02	-2.53509484555	2.53595595274
12.03	-2.38275109182	2.56054518243
12.04	-2.33514366878	2.58413465623
12.05	-2.17387352324	2.60667974219
12.06	-2.08818016177	2.62799001062
12.07	-2.05009422333	2.64868138254
12.08	-1.98344383108	2.66884907281
12.09	-1.888228985	2.68820743689
12.1	-1.73648032406	2.70633098344
12.11	-1.63174399338	2.72317210503
12.12	-1.4323879094	2.73849276454
12.13	-1.24195821724	2.75186449517
12.14	-1.07116658709	2.76343011919
12.15	-0.918822833366	2.7733800663
12.16	-0.767074172429	2.78180955133
12.17	-0.633773387919	2.78881378913
12.18	-0.548080026449	2.7947230562
12.19	-0.405852850119	2.79949272058
12.2	-0.272552065609	2.80288474516
12.21	-0.177337219531	2.80513419159
12.22	-0.073195981633	2.80638685759
12.23	-0.0351100432017	2.80692838772
12.24	-0.0255885585939	2.80723188073
12.25	-0.0160670739861	2.80744015889
12.26	-0.0160670739861	2.80760082963
12.27	0.0124973798374	2.8076186781
12.28	0.0505833182688	2.80730327461
12.29	0.0886692567001	2.80660701173
12.3	0.107712225916	2.80562510432
12.31	0.107712225916	2.80454798206
12.32	0.107712225916	2.8034708598
12.33	0.126755195131	2.8022985227
12.34	0.164841133563	2.80084054105
12.35	0.193405587386	2.79904930745
12.36	0.164841133563	2.79725807384
12.37	0.0981907413079	2.79594291447
12.38	0.0315403490531	2.79529425902
12.39	-0.0160670739861	2.79521689264
12.4	-0.0255885585939	2.79542517081
12.41	-0.0255885585939	2.79568105639
12.42	-0.00654558937822	2.79584172713
12.43	0.0315403490531	2.79571675333
12.44	0.0601048028766	2.79525852757
12.45	0.0791477720923	2.7945622647
12.46	0.0886692567001	2.79372317955
12.47	0.0696262874844	2.79293170183
12.48	0.0791477720923	2.79218783154
12.49	0.107712225916	2.79125353155
12.5	0.155319648955	2.78993837217
12.51	0.212448556602	2.78809953114
12.52	0.278503856069	2.78564476908
12.53	0.3165897945	2.78266930083
12.54	0.354675732931	2.77931297319
12.55	0.402283155971	2.77552817875
12.56	0.468933548225	2.77117209522
12.57	0.53558394048	2.76614950778
12.58	0.592117755339	2.7605109993
12.59	0.649246662986	2.75430417721
12.6	0.649246662986	2.74781171058
12.61	0.620682209163	2.74146206622
12.62	0.582596270731	2.73544567382
12.63	0.526062455872	2.72990238019
12.64	0.478455032833	2.72487979274
12.65	0.411804640578	2.72042849438
12.66	0.364197217539	2.71654848509
12.67	0.3165897945	2.71314455003
12.68	0.297546825284	2.71007386693
12.69	0.268982371461	2.70724122094
12.7	0.249939402245	2.70464661207
12.71	0.240417917637	2.70219482548
12.72	0.23089643303	2.69983825372
12.73	0.259460886853	2.69738646712
12.74	0.288025340677	2.69464903598
12.75	0.345154248324	2.69148313804
12.76	0.430847609794	2.68760312875
12.77	0.497498002049	2.68296140069
12.78	0.611160724555	2.67741810706
12.79	0.792068932104	2.67040195877
12.8	0.981903531472	2.66153209646
12.81	1.21994064667	2.65052287556
12.82	1.50499009211	2.63689822187
12.83	1.80908250678	2.62032785888
12.84	2.14173937526	2.60057374947
12.85	2.42678882071	2.57773110849
12.86	2.74040271998	2.55189515078
12.87	2.98796131978	2.52325333058
12.88	3.2349248268	2.49213889985
12.89	3.42475942617	2.45884047859
12.9	3.50093130303	2.42421202494
12.91	3.70028738701	2.38820593149
12.92	3.84310965613	2.35048894627
12.93	3.91928153299	2.31167699033
12.94	4.08055167853	2.27167782427
12.95	4.26145988608	2.22996776645
12.96	4.34715324755	2.18692470078
12.97	4.47985893927	2.14278963985
12.98	4.52746636231	2.09775301334
12.99	4.56555230074	2.05228792002
13	4.76490838472	2.0056356166
13.01	4.80299432315	1.95779610306
13.02	4.80299432315	1.90976615982
13.03	4.80299432315	1.86173621659
13.04	4.85060174619	1.81346823625
13.05	4.94581659227	1.76448614455
13.06	5.05055292296	1.71450429698
13.07	5.14517267625	1.66352566898
13.08	5.10708673781	1.61226437191
13.09	5.00294549992	1.56171421072
13.1	4.91725213845	1.51211322253
13.11	4.78395135394	1.46360720507
13.12	5.01246698452	1.41462511338
13.13	5.07911737678	1.36416719157
13.14	5.06007440756	1.31347123265
13.15	4.84108026158	1.2639654593
13.16	4.67981011604	1.21636100742
13.17	4.7363439309	1.16928023718
13.18	4.84108026158	1.12139311622
13.19	4.84108026158	1.0729823136
13.2	4.82203729237	1.02466672583
13.21	4.69885308525	0.977062273944
13.22	4.53698784692	0.930883069283
13.23	4.60363823918	0.885179938853
13.24	4.71789605447	0.838572267385
13.25	4.632202693	0.791821773647
13.26	4.44177300084	0.746451895178
13.27	4.41320854702	0.702176987439
13.28	4.38523918598	0.658184748774
13.29	4.40368706241	0.614240117532
13.3	4.43225151623	0.570060424639
13.31	4.25193840147	0.52663947505
13.32	4.26145988608	0.484072483612
13.33	4.09007316314	0.442314818366
13.34	4.07103019393	0.401509301581
13.35	3.98593192524	0.361224490985
13.36	3.99545340985	0.32131756431
13.37	3.84310965613	0.28212474898
13.38	3.71933035622	0.244312548918
13.39	3.6907659024	0.207262067625
13.4	3.5866246645	0.17087511479
13.41	3.62471060293	0.134818438453
13.42	3.56758169529	0.0988569769622
13.43	3.43428091078	0.0638476639319
13.44	3.32061818827	0.0300731684366
13.45	3.19683888837	-0.00251411694656
13.46	2.9968877116	-0.0334827499464
13.47	2.92131092753	-0.0630737431421
13.48	2.74992420459	-0.0914299188027
13.49	2.7689671738	-0.119024375695
13.5	2.57913257444	-0.145764874436
13.51	2.37918139767	-0.170556444296
13.52	2.25599719056	-0.193732337238
13.53	2.10365343683	-0.215530590374
13.54	1.98939562154	-0.235995835666
13.55	1.85668992982	-0.255226263423
13.56	1.76147508374	-0.273317088491
13.57	1.7138676607	-0.290693802213
13.58	1.64721726844	-0.307499226859
13.59	1.62817429923	-0.323876184697
13.6	1.57164048437	-0.339875258615
13.61	1.53355454594	-0.355401233767
13.62	1.49546860751	-0.370546349534
13.63	1.46690415368	-0.38535821334
13.64	1.40977524604	-0.399741610339
13.65	1.38121079221	-0.41369654053
13.66	1.37168930761	-0.427461041029
13.67	1.34312485378	-0.441035111836
13.68	1.33360336917	-0.454418752951
13.69	1.29551743074	-0.46756435695
13.7	1.27647446153	-0.480424316411
13.71	1.26695297692	-0.493141453604
13.72	1.24850510049	-0.505718743991
13.73	1.22946213128	-0.51810858015
13.74	1.19137619284	-0.53021277177
13.75	1.17233322363	-0.542031318853
13.76	1.1342472852	-0.553564221397
13.77	1.10568283137	-0.56476387198
13.78	1.07711837755	-0.575677878024
13.79	1.06759689294	-0.586401454377
13.8	1.02951095451	-0.596886993614
13.81	1.00094650069	-0.60703928089
13.82	0.972382046864	-0.616905923628
13.83	0.934296108433	-0.626439314404
13.84	0.915253139217	-0.635687060642
13.85	0.887283778182	-0.644699745229
13.86	0.868240808966	-0.653477368165
13.87	0.849197839751	-0.662064561409
13.88	0.849197839751	-0.670556539806
13.89	0.820633385927	-0.678905695935
13.9	0.792068932104	-0.686969207525
13.91	0.76350447828	-0.694747074577
13.92	0.753982993672	-0.702334511936
13.93	0.706375570633	-0.709636304758
13.94	0.696854086025	-0.716652453041
13.95	0.687332601417	-0.723573386478
13.96	0.658768147594	-0.730303890224
13.97	0.639725178378	-0.736796356853
13.98	0.611160724555	-0.743050786368
13.99	0.601639239947	-0.749114786191
14	0.611160724555	-0.755178786013
14.01	0.592117755339	-0.761195178413
14.02	0.582596270731	-0.767068748543
14.03	0.582596270731	-0.77289471125
14.04	0.573074786123	-0.778673066534
14.05	0.573074786123	-0.784403814396
14.06	0.554626909696	-0.790042322875
14.07	0.545105425088	-0.795540984549
14.08	0.516540971264	-0.80084921653
14.09	0.516540971264	-0.806014626243
14.1	0.516540971264	-0.811180035956
14.11	0.507019486657	-0.816297838245
14.12	0.487976517441	-0.821272818266
14.13	0.468933548225	-0.826057368594
14.14	0.468933548225	-0.830746704076
14.15	0.459412063617	-0.835388432136
14.16	0.468933548225	-0.840030160195
14.17	0.44989057901	-0.844624280831
14.18	0.44989057901	-0.849123186621
14.19	0.430847609794	-0.853526877565
14.2	0.392761671363	-0.857644923971
14.21	0.354675732931	-0.861382110992
14.22	0.3165897945	-0.86473843863
14.23	0.268982371461	-0.867666299459
14.24	0.249939402245	-0.870260908328
14.25	0.23089643303	-0.872665087504
14.26	0.193405587386	-0.874786597606
14.27	0.117233710524	-0.876339794096
14.28	0.0220188644453	-0.877036056971
14.29	-0.0636744970252	-0.876827778808
14.3	-0.13032488928	-0.875857781876
14.31	-0.177337219531	-0.874319471332
14.32	-0.243987611786	-0.872212847176
14.33	-0.339202457864	-0.869296896827
14.34	-0.462981757766	-0.865285975749
14.35	-0.643294872527	-0.859754592598
14.36	-0.814681595468	-0.852464710258
14.37	-1.00451619484	-0.843368721306
14.38	-1.12829549474	-0.832704662858
14.39	-1.15685994856	-0.821278885642
14.4	-1.26100118646	-0.809189579967
14.41	-1.3086086095	-0.796341530987
14.42	-1.36573751715	-0.782969800354
14.43	-1.47047384783	-0.768788743529
14.44	-1.49903830166	-0.753941182781
14.45	-1.58413657034	-0.738525308421
14.46	-1.57461508573	-0.722731550141
14.47	-1.60317953955	-0.706842577015
14.48	-1.61270102416	-0.690763174196
14.49	-1.64126547799	-0.674493341685
14.5	-1.67935141642	-0.657890257213
14.51	-1.67935141642	-0.641096743049
14.52	-1.75552329328	-0.623922369501
14.53	-1.81265220093	-0.60608149203
14.54	-1.86025962397	-0.587716932905
14.55	-1.888228985	-0.56897448986
14.56	-2.00248680029	-0.549520910934
14.57	-2.05009422333	-0.529258005816
14.58	-2.11674461559	-0.508423811621
14.59	-2.11674461559	-0.487256365465
14.6	-2.16435203863	-0.465850882194
14.61	-2.23040733809	-0.44387708531
14.62	-2.28753624574	-0.421287367391
14.63	-2.30657921496	-0.398316790088
14.64	-2.38275109182	-0.374870138554
14.65	-2.4779659379	-0.350566553405
14.66	-2.54461633015	-0.325453642065
14.67	-2.61067162962	-0.299677202266
14.68	-2.69636499109	-0.273142019163
14.69	-2.68684350648	-0.246225976675
14.7	-2.73445092952	-0.219119504495
14.71	-2.73445092952	-0.1917749952
14.72	-2.73445092952	-0.164430485904
14.73	-2.69636499109	-0.137276406301
14.74	-2.71540796031	-0.110217541544
14.75	-2.73445092952	-0.0829682470952
14.76	-2.73445092952	-0.0556237378
14.77	-2.71540796031	-0.0283744433508
14.78	-2.73445092952	-0.00112514890167
14.79	-2.68684350648	0.0259813232783
14.8	-2.62971459884	0.0525641138049
14.81	-2.5916286604	0.0786708301011
14.82	-2.5916286604	0.104587116705
14.83	-2.62019311423	0.130646225578
14.84	-2.65827905266	0.157038586413
14.85	-2.66780053727	0.183668984362
14.86	-2.68684350648	0.210442204581
14.87	-2.74397241413	0.237596284184
14.88	-2.62019311423	0.264417111826
14.89	-2.62019311423	0.290619042968
14.9	-2.5821071758	0.316630544418
14.91	-2.5821071758	0.342451616176
14.92	-2.50653039172	0.367894804014
14.93	-2.54461633015	0.393150537623
14.94	-2.54461633015	0.418596700925
14.95	-2.53509484555	0.443995256803
14.96	-2.50653039172	0.46920338299
14.97	-2.51605187633	0.49431629433
14.98	-2.53509484555	0.519572027939
14.99	-2.53509484555	0.544922976395
15	-2.54461633015	0.570321532273
15.01	-2.55413781476	0.595815302998
15.02	-2.51605187633	0.621166251453
15.03	-2.4779659379	0.646136340525
15.04	-2.43987999947	0.670725570211
15.05	-2.34466515339	0.694648295976
15.06	-2.30657921496	0.717904517817
15.07	-2.24945030731	0.740684665429
15.08	-2.2399288227	0.763131561079
15.09	-2.19291649245	0.785295787655
15.1	-2.1262661002	0.806891700618
15.11	-2.07865867716	0.827916324505
15.12	-2.00248680029	0.848322051892
15.13	-1.93583640804	0.868013667934
15.14	-1.84121665475	0.886898933247
15.15	-1.77456626249	0.904977847834
15.16	-1.70791587024	0.922390258497
15.17	-1.64126547799	0.939136165238
15.18	-1.58413657034	0.95526317548
15.19	-1.47999533244	0.970583834994
15.2	-1.40382345558	0.985002928934
15.21	-1.33717306332	0.998707911529
15.22	-1.28956564028	1.01184160505
15.23	-1.24195821724	1.02449922433
15.24	-1.21339376342	1.03677598424
15.25	-1.22291524803	1.04895752929
15.26	-1.20387227881	1.06109146693
15.27	-1.17590291778	1.07299034291
15.28	-1.20387227881	1.08488921889
15.29	-1.20387227881	1.09692794168
15.3	-1.19435079421	1.10891905705
15.31	-1.20387227881	1.12091017241
15.32	-1.17590291778	1.1328090484
15.33	-1.14733846395	1.1444252553
15.34	-1.0806880717	1.15556538798
15.35	-1.00451619484	1.16599140932
15.36	-0.937865802582	1.1757033193
15.37	-0.852172441111	1.18465351052
15.38	-0.67185932635	1.19227366936
15.39	-0.519515572625	1.19823054385
15.4	-0.263030581002	1.20214327462
15.41	0.0410618336609	1.20325311836
15.42	0.3165897945	1.20146486022
15.43	0.582596270731	1.19696892989
15.44	0.76350447828	1.19023842615
15.45	0.868240808966	1.18207969971
15.46	0.915253139217	1.17316222997
15.47	0.906326747398	1.16405433054
15.48	1.03903243912	1.1543275346
15.49	1.09616134677	1.14365156567
15.5	1.15329025441	1.13240430767
15.51	1.21994064667	1.12053815316
15.52	1.23898361588	1.10824353185
15.53	1.25743149231	1.09576145631
15.54	1.26695297692	1.08313953396
15.55	1.28599594613	1.07037478935
15.56	1.30503891535	1.05741961504
15.57	1.31456039996	1.04432161846
15.58	1.34312485378	1.03103319219
15.59	1.37168930761	1.01745912139
15.6	1.41929673064	1.0035041912
15.61	1.44786118447	0.989168401621
15.62	1.4859471229	0.974499360084
15.63	1.49546860751	0.959592281432
15.64	1.50499009211	0.944589987934
15.65	1.52403306133	0.929444872167
15.66	1.55259751515	0.914061719285
15.67	1.56211899976	0.89848813671
15.68	1.57164048437	0.882819339289
15.69	1.60020493819	0.866960112177
15.7	1.59068345359	0.851005670218
15.71	1.61865281462	0.834958988877
15.72	1.65673875305	0.818582031038
15.73	1.66626023766	0.801967036085
15.74	1.64721726844	0.785399648554
15.75	1.66626023766	0.768832261024
15.76	1.61865281462	0.752407695762
15.77	1.62817429923	0.736173560193
15.78	1.60913133001	0.719987032047
15.79	1.56211899976	0.704130780398
15.8	1.56211899976	0.6885095904
15.81	1.56211899976	0.672888400403
15.82	1.53355454594	0.657410032674
15.83	1.47642563829	0.642360131753
15.84	1.47642563829	0.62759587537
15.85	1.45738266908	0.612926833834
15.86	1.46690415368	0.59830539972
15.87	1.42881821525	0.583826787875
15.88	1.40977524604	0.569633820569
15.89	1.35264633839	0.555821712646
15.9	1.30503891535	0.542533286378
15.91	1.21994064667	0.529908388568
15.92	1.15329025441	0.518042234062
15.93	1.06759689294	0.506937798326
15.94	0.962860562257	0.49678551105
15.95	0.820633385927	0.487868041309
15.96	0.620682209163	0.480661463333
15.97	0.430847609794	0.475403814238
15.98	0.202927071994	0.472234940829
15.99	-0.0636744970252	0.471538677955
16	-0.329680973256	0.473505455306
16.01	-0.633773387919	0.478322727112
16.02	-0.880736894935	0.485895278526
16.03	-1.10925252552	0.495845225628
16.04	-1.28004415568	0.507791709034
16.05	-1.37525900175	0.521068224822
16.06	-1.61270102416	0.536008024951
16.07	-1.84121665475	0.553277613346
16.08	-1.99296531569	0.572448523198
16.09	-2.16435203863	0.593235109969
16.1	-2.26849327653	0.615399336545
16.11	-2.37322960721	0.638607950964
16.12	-2.48748742251	0.662911536113
16.13	-2.57258569119	0.688211901681
16.14	-2.62019311423	0.714175795708
16.15	-2.64875756805	0.74052054912
16.16	-2.73445092952	0.767436591607
16.17	-2.66780053727	0.794447848941
16.18	-2.75349389874	0.821554321121
16.19	-2.81062280638	0.849374904647
16.2	-2.80110132178	0.877433525288
16.21	-2.83918726021	0.905634968198
16.22	-2.81062280638	0.933884018531
16.23	-2.84870874482	0.962180676287
16.24	-2.81062280638	0.990477334043
16.25	-2.77253686795	1.01839313241
16.26	-2.78205835256	1.04616610852
16.27	-2.73445092952	1.07374865493
16.28	-2.68684350648	1.10085512711
16.29	-2.71540796031	1.12786638444
16.3	-2.73445092952	1.15511567889
16.31	-2.62971459884	1.18193650653
16.32	-2.67732202187	1.20847168964
16.33	-2.68684350648	1.23529251728
16.34	-2.67732202187	1.26211334492
16.35	-2.62019311423	1.2886009206
16.36	-2.55413781476	1.31447257524
16.37	-2.60115014501	1.34024901504
16.38	-2.54461633015	1.36597784742
16.39	-2.56365929937	1.39151922557
16.4	-2.46844445329	1.41667974433
16.41	-2.37322960721	1.44088811463
16.42	-2.31610069957	1.46433476617
16.43	-2.27801476113	1.48730534347
16.44	-2.20243797706	1.50970760716
16.45	-2.1262661002	1.53135112755
16.46	-2.03105125412	1.55213771432
16.47	-1.94535789265	1.57201976005
16.48	-1.89775046961	1.59123530186
16.49	-1.71743735485	1.60931124099
16.5	-1.55557211651	1.62567628834
16.51	-1.35621603254	1.64023522909
16.52	-1.0806880717	1.65241974961
16.53	-0.767074172429	1.66165856083
16.54	-0.386809880903	1.6674279811
16.55	0.0886692567001	1.66891868422
16.56	0.573074786123	1.665609964
16.57	0.962860562257	1.65793028726
16.58	1.17233322363	1.64725431833
16.59	1.24850510049	1.63515012671
16.6	1.40025376143	1.6219063324
16.61	1.46690415368	1.60757054283
16.62	1.52403306133	1.59261585675
16.63	1.60913133001	1.5769500348
16.64	1.68530320688	1.56047786211
16.65	1.75195359913	1.54329157808
16.66	1.82812547599	1.5253911827
16.67	1.95190477589	1.50649103145
16.68	2.10365343683	1.48621324038
16.69	2.21791125213	1.46460541694
16.7	2.32205249002	1.44190559823
16.71	2.46487475914	1.41797096198
16.72	2.55056812061	1.39289374758
16.73	2.62673999747	1.36700720699
16.74	2.65470935851	1.34059996021
16.75	2.70231678155	1.31381482951
16.76	2.69279529694	1.28683926912
16.77	2.7689671738	1.25953045677
16.78	2.7594456892	1.23188839245
16.79	2.79753162763	1.20410350587
16.8	2.74040271998	1.17641383413
16.81	2.73088123537	1.14905741435
16.82	2.66423084312	1.12208185396
16.83	2.61721851287	1.09567460718
16.84	2.65470935851	1.06931496782
16.85	2.60769702826	1.04300293589
16.86	2.58865405904	1.01702118045
16.87	2.541046636	0.991372676976
16.88	2.50296069757	0.966152640308
16.89	2.44583178993	0.941408677871
16.9	2.38870288228	0.91723600451
16.91	2.34109545924	0.893587012802
16.92	2.24647570595	0.870649156976
16.93	2.19886828291	0.848422437032
16.94	2.1893467983	0.826481361626
16.95	2.11317492144	0.804968753027
16.96	2.09413195222	0.783932218659
16.97	2.05604601379	0.763181328829
16.98	2.00843859075	0.742858905806
16.99	1.95190477589	0.723057188973
17	1.87573289903	0.703919000598
17.01	1.80908250678	0.685494923569
17.02	1.76147508374	0.667642135617
17.03	1.73291062991	0.650170207049
17.04	1.64721726844	0.633269567557
17.05	1.64721726844	0.616797394872
17.06	1.59068345359	0.600607891262
17.07	1.53355454594	0.584986701265
17.08	1.51451157672	0.569746370651
17.09	1.45738266908	0.554886899422
17.1	1.42881821525	0.540455895001
17.11	1.41929673064	0.526215320271
17.12	1.37168930761	0.51226039008
17.13	1.33360336917	0.498733926696
17.14	1.27647446153	0.485683537543
17.15	1.23898361588	0.473106247156
17.16	1.20089767745	0.460906840689
17.17	1.19137619284	0.448945471337
17.18	1.16281173902	0.437174531678
17.19	1.15329025441	0.425594021711
17.2	1.11520431598	0.414251548859
17.21	1.06759689294	0.403337542814
17.22	1.07711837755	0.392613966462
17.23	1.06759689294	0.38189039011
17.24	1.05807540833	0.371262028603
17.25	1.04855392373	0.360728881943
17.26	1.02951095451	0.350338557552
17.27	1.02951095451	0.340043448007
17.28	1.00094650069	0.329891160731
17.29	1.00094650069	0.319881695724
17.3	0.972382046864	0.310015052986
17.31	0.962860562257	0.30033883994
17.32	0.943817593041	0.290805449164
17.33	0.915253139217	0.281510095503
17.34	0.887283778182	0.272497410916
17.35	0.868240808966	0.26371978798
17.36	0.839676355143	0.255180202159
17.37	0.801590416711	0.2469738683
17.38	0.773025962888	0.239100786402
17.39	0.753982993672	0.231465741619
17.4	0.744461509064	0.223973519105
17.41	0.706375570633	0.216719333707
17.42	0.67781111681	0.20979840027
17.43	0.658768147594	0.203115503948
17.44	0.63020369377	0.196670644741
17.45	0.601639239947	0.190511430072
17.46	0.582596270731	0.184590252519
17.47	0.573074786123	0.178811897235
17.48	0.545105425088	0.173220996179
17.49	0.507019486657	0.16796037162
17.5	0.459412063617	0.163128213869
17.51	0.440369094402	0.158629308078
17.52	0.392761671363	0.15446365425
17.53	0.354675732931	0.150726467228
17.54	0.335632763716	0.147274924745
17.55	0.326111279108	0.143966204531
17.56	0.307068309892	0.140800306586
17.57	0.297546825284	0.13777723091
17.58	0.278503856069	0.134896977503
17.59	0.268982371461	0.132159546366
17.6	0.259460886853	0.129517330074
17.61	0.240417917637	0.127017936051
17.62	0.23089643303	0.124661364298
17.63	0.202927071994	0.122492246773
17.64	0.202927071994	0.120462976053
17.65	0.183884102778	0.118528920179
17.66	0.155319648955	0.116832901421
17.67	0.136276679739	0.115374919777
17.68	0.117233710524	0.114107367826
17.69	0.107712225916	0.112982638144
17.7	0.0886692567001	0.112000730731
17.71	0.0886692567001	0.111114038164
17.72	0.0886692567001	0.110227345597
17.73	0.0791477720923	0.109388260453
17.74	0.0886692567001	0.108549175309
17.75	0.0886692567001	0.107662482742
17.76	0.0886692567001	0.106775790175
17.77	0.117233710524	0.105746275338
17.78	0.0981907413079	0.104669153079
17.79	0.0886692567001	0.103734853089
17.8	0.0981907413079	0.102800553099
17.81	0.0886692567001	0.101866253109
17.82	0.0981907413079	0.100931953119
17.83	0.0981907413079	0.0999500457061
17.84	0.0886692567001	0.099015745716
17.85	0.0886692567001	0.098129053149
17.86	0.0791477720923	0.0972899680051
17.87	0.0791477720923	0.0964984902841
17.88	0.0601048028766	0.0958022274093
17.89	0.0601048028766	0.0952011793805
17.9	0.0505833182688	0.0946477387748
17.91	0.0220188644453	0.0942847278612
17.92	0.0124973798374	0.0941121466398
17.93	0.00297589522961	0.0940347802645
17.94	-0.0160670739861	0.0941002361583
17.95	-0.0255885585939	0.0943085143212
17.96	-0.0446315278095	0.0946596147532
17.97	-0.0255885585939	0.0950107151852
17.98	-0.0541530124174	0.0954094230403
17.99	-0.0541530124174	0.0959509531644
18	-0.0636744970252	0.0965400907116
18.01	-0.0636744970252	0.0971768356819
18.02	-0.0636744970252	0.0978135806521
18.03	-0.073195981633	0.0984979330454
18.04	-0.073195981633	0.0992298928618
18.05	-0.0636744970252	0.0999142452551
18.06	-0.073195981633	0.100598597648
18.07	-0.073195981633	0.101330557465
18.08	-0.073195981633	0.102062517281
18.09	-0.0827174662409	0.10284208452
18.1	-0.073195981633	0.10362165176
18.11	-0.0922389508487	0.104448826422
18.12	-0.073195981633	0.105276001085
18.13	-0.0827174662409	0.106055568324
18.14	-0.0827174662409	0.106882742986
18.15	-0.0827174662409	0.107709917649
18.16	-0.0827174662409	0.108537092311
18.17	-0.073195981633	0.109316659551
18.18	-0.0922389508487	0.110143834213
18.19	-0.0827174662409	0.111018616298
18.2	-0.073195981633	0.111798183538
18.21	-0.073195981633	0.112530143354
18.22	-0.0827174662409	0.113309710593
18.23	-0.073195981633	0.114089277833
18.24	-0.073195981633	0.114821237649
18.25	-0.0827174662409	0.115600804889
18.26	-0.073195981633	0.116380372128
18.27	-0.0922389508487	0.11720754679
18.28	-0.073195981633	0.118034721453
18.29	-0.0636744970252	0.118719073846
18.3	-0.073195981633	0.119403426239
18.31	-0.073195981633	0.120135386056
18.32	-0.073195981633	0.120867345872
18.33	-0.0922389508487	0.121694520534
18.34	-0.073195981633	0.122521695197
18.35	-0.073195981633	0.123253655013
18.36	-0.0636744970252	0.123938007406
18.37	-0.0827174662409	0.124669967223
18.38	-0.073195981633	0.125449534462
18.39	-0.0827174662409	0.126229101701
18.4	-0.0827174662409	0.127056276364
18.41	-0.073195981633	0.127835843603
18.42	-0.0636744970252	0.128520195997
18.43	-0.073195981633	0.12920454839
18.44	-0.0922389508487	0.130031723052
18.45	-0.0922389508487	0.130954112561
18.46	-0.073195981633	0.131781287223
18.47	-0.073195981633	0.132513247039
18.48	-0.0827174662409	0.133292814279
18.49	-0.073195981633	0.134072381518
18.5	-0.073195981633	0.134804341335
18.51	-0.0827174662409	0.135583908574
18.52	-0.073195981633	0.136363475813
18.53	-0.0827174662409	0.137143043053
18.54	-0.0636744970252	0.137875002869
18.55	-0.0827174662409	0.138606962685
18.56	-0.073195981633	0.139386529925
18.57	-0.073195981633	0.140118489741
18.58	-0.0636744970252	0.140802842134
18.59	-0.0636744970252	0.141439587105
18.6	-0.073195981633	0.142123939498
18.61	-0.073195981633	0.142855899314
18.62	-0.0636744970252	0.143540251707
18.63	-0.0827174662409	0.144272211524
18.64	-0.073195981633	0.145051778763
18.65	-0.0827174662409	0.145831346003
18.66	-0.073195981633	0.146610913242
18.67	-0.073195981633	0.147342873058
18.68	-0.073195981633	0.148074832875
18.69	-0.073195981633	0.148806792691
18.7	-0.0827174662409	0.14958635993
18.71	-0.073195981633	0.15036592717
18.72	-0.073195981633	0.151097886986
18.73	-0.073195981633	0.151829846802
18.74	-0.0922389508487	0.152657021465
18.75	-0.0827174662409	0.15353180355
18.76	-0.073195981633	0.15431137079
18.77	-0.073195981633	0.155043330606
18.78	-0.0827174662409	0.155822897845
18.79	-0.073195981633	0.156602465085
18.8	-0.073195981633	0.157334424901
18.81	-0.073195981633	0.158066384717
18.82	-0.0827174662409	0.158845951957
18.83	-0.0827174662409	0.159673126619
18.84	-0.0827174662409	0.160500301281
18.85	-0.0922389508487	0.161375083367
18.86	-0.0922389508487	0.162297472875
18.87	-0.0827174662409	0.163172254961
18.88	-0.0827174662409	0.163999429623
18.89	-0.073195981633	0.164778996863
18.9	-0.0827174662409	0.165558564102
18.91	-0.0827174662409	0.166385738764
18.92	-0.0922389508487	0.16726052085
18.93	-0.0827174662409	0.168135302935
18.94	-0.0922389508487	0.169010085021
18.95	-0.0922389508487	0.169932474529
18.96	-0.0827174662409	0.170807256615
18.97	-0.0922389508487	0.1716820387
18.98	-0.0922389508487	0.172604428209
18.99	-0.101760435457	0.17357442514
19	-0.0922389508487	0.174544422072
19.01	-0.101760435457	0.175514419003
19.02	-0.0922389508487	0.176484415935
19.03	-0.0922389508487	0.177406805443
19.04	-0.101760435457	0.178376802375
19.05	-0.0922389508487	0.179346799306
19.06	-0.101760435457	0.180316796238
19.07	-0.0922389508487	0.181286793169
19.08	-0.0827174662409	0.182161575255
19.09	-0.0827174662409	0.182988749917
19.1	-0.073195981633	0.183768317157
19.11	-0.073195981633	0.184500276973
19.12	-0.0827174662409	0.185279844212
19.13	-0.0922389508487	0.186154626298
19.14	-0.0827174662409	0.187029408383
19.15	-0.073195981633	0.187808975622
19.16	-0.073195981633	0.188540935439
19.17	-0.0827174662409	0.189320502678
19.18	-0.0827174662409	0.190147677341
19.19	-0.073195981633	0.19092724458
19.2	-0.0827174662409	0.191706811819
19.21	-0.0827174662409	0.192533986482
19.22	-0.073195981633	0.193313553721
19.23	-0.073195981633	0.194045513537
19.24	-0.073195981633	0.194777473354
19.25	-0.073195981633	0.19550943317
19.26	-0.073195981633	0.196241392986
19.27	-0.0636744970252	0.19692574538
19.28	-0.073195981633	0.197610097773
19.29	-0.0636744970252	0.198294450166
19.3	-0.0827174662409	0.199026409983
19.31	-0.073195981633	0.199805977222
19.32	-0.073195981633	0.200537937038
19.33	-0.0636744970252	0.201222289432
19.34	-0.073195981633	0.201906641825
19.35	-0.073195981633	0.202638601641
19.36	-0.0827174662409	0.203418168881
19.37	-0.073195981633	0.20419773612
19.38	-0.073195981633	0.204929695936
19.39	-0.073195981633	0.205661655753
19.4	-0.073195981633	0.206393615569
19.41	-0.073195981633	0.207125575385
19.42	-0.0827174662409	0.207905142625
19.43	-0.073195981633	0.208684709864
19.44	-0.0636744970252	0.209369062257
19.45	-0.0636744970252	0.210005807228
19.46	-0.0922389508487	0.210785374467
19.47	-0.073195981633	0.211612549129
19.48	-0.073195981633	0.212344508946
19.49	-0.0827174662409	0.213124076185
19.5	-0.073195981633	0.213903643424
19.51	-0.073195981633	0.214635603241
19.52	-0.0827174662409	0.21541517048
19.53	-0.073195981633	0.216194737719
19.54	-0.0827174662409	0.216974304959
19.55	-0.073195981633	0.217753872198
19.56	-0.0922389508487	0.218581046861
19.57	-0.073195981633	0.219408221523
19.58	-0.0636744970252	0.220092573916
19.59	-0.0827174662409	0.220824533733
19.6	-0.073195981633	0.221604100972
19.61	-0.073195981633	0.222336060788
19.62	-0.073195981633	0.223068020605
19.63	-0.0827174662409	0.223847587844
19.64	-0.0827174662409	0.224674762506
19.65	-0.0827174662409	0.225501937169
19.66	-0.0827174662409	0.226329111831
19.67	-0.0922389508487	0.227203893917
19.68	-0.073195981633	0.228031068579
19.69	-0.0827174662409	0.228810635819
19.7	-0.073195981633	0.229590203058
19.71	-0.0922389508487	0.23041737772
19.72	-0.0827174662409	0.231292159806
19.73	-0.0827174662409	0.232119334468
19.74	-0.0827174662409	0.232946509131
19.75	-0.0827174662409	0.233773683793
19.76	-0.0922389508487	0.234648465878
19.77	-0.0922389508487	0.235570855387
19.78	-0.0922389508487	0.236493244895
19.79	-0.0922389508487	0.237415634404
19.8	-0.0827174662409	0.238290416489
19.81	-0.0922389508487	0.239165198575
19.82	-0.0922389508487	0.240087588083
19.83	-0.0922389508487	0.241009977592
19.84	-0.0922389508487	0.2419323671
19.85	-0.0922389508487	0.242854756609
19.86	-0.073195981633	0.243681931271
19.87	-0.0827174662409	0.244461498511
19.88	-0.073195981633	0.24524106575
19.89	-0.0827174662409	0.246020632989
19.9	-0.0827174662409	0.246847807652
19.91	-0.073195981633	0.247627374891
19.92	-0.073195981633	0.248359334707
19.93	-0.073195981633	0.249091294524
19.94	-0.0636744970252	0.249775646917
19.95	-0.073195981633	0.25045999931
19.96	-0.073195981633	0.251191959127
19.97	-0.073195981633	0.251923918943
19.98	-0.073195981633	0.252655878759
19.99	-0.073195981633	0.253387838576
20	-0.073195981633	0.254119798392
