Vernier Format 2
rest_spirom1.cmbl 10/05/20 16:23 .
Latest
Tiempo	Tasa de Flujo	Volumen
t	Flujo	Vol
s	L/s	L

0	-0.0922389508487	-0
0.01	-0.148772765708	0.00120505858278
0.02	-0.196380188747	0.00293082335506
0.03	-0.234466127178	0.00508505493468
0.04	-0.253509096394	0.00752493105254
0.05	-0.291595034825	0.0102504517086
0.06	-0.291595034825	0.0131664020569
0.07	-0.310638004041	0.0161775672512
0.08	-0.301116519433	0.0192363398686
0.09	-0.320159488649	0.022342719909
0.1	-0.329680973256	0.0255919222185
0.11	-0.35824542708	0.0290315542202
0.12	-0.386809880903	0.0327568307601
0.13	-0.396331365511	0.0366725369922
0.14	-0.44393878855	0.0408738877625
0.15	-0.509994088017	0.0456435521453
0.16	-0.576644480272	0.0510767449868
0.17	-0.652816357135	0.0572240491738
0.18	-0.71946674939	0.0640854647064
0.19	-0.795638626252	0.0716609915846
0.2	-0.871215410327	0.0799952617675
0.21	-0.966430256405	0.0891834901012
0.22	-1.07116658709	0.0993714743187
0.23	-1.1848293096	0.110651453802
0.24	-1.28004415568	0.122975821129
0.25	-1.38478048636	0.136299944339
0.26	-1.47999533244	0.150623823433
0.27	-1.60317953955	0.166039697793
0.28	-1.68887290102	0.182499959996
0.29	-1.82217368553	0.200055192928
0.3	-1.92631492343	0.218797635973
0.31	-2.02152976951	0.238536859438
0.32	-2.07865867716	0.259037801671
0.33	-2.1262661002	0.280062425558
0.34	-2.14530906941	0.301420301406
0.35	-2.18339500784	0.323063821792
0.36	-2.20243797706	0.344992986717
0.37	-2.2399288227	0.367204820716
0.38	-2.22088585349	0.389508894096
0.39	-2.19291649245	0.411577905826
0.4	-2.17387352324	0.433411855905
0.41	-2.15483055402	0.455055376291
0.42	-2.21195946167	0.476889326369
0.43	-2.20243797706	0.498961313563
0.44	-2.20243797706	0.520985693334
0.45	-2.19291649245	0.542962465681
0.46	-2.19291649245	0.564891630606
0.47	-2.16435203863	0.586677973261
0.48	-2.18339500784	0.608416708493
0.49	-2.17387352324	0.630203051149
0.5	-2.1262661002	0.651703749266
0.51	-2.1262661002	0.672966410268
0.52	-2.05961570794	0.693895819309
0.53	-1.99296531569	0.714158724427
0.54	-1.96440086186	0.733945555315
0.55	-1.89775046961	0.753256311972
0.56	-1.85073813936	0.771998755017
0.57	-1.7840877471	0.790172884449
0.58	-1.75552329328	0.807870939651
0.59	-1.71743735485	0.825235742892
0.6	-1.64126547799	0.842029257056
0.61	-1.65078696259	0.858489519259
0.62	-1.6603084472	0.875044996308
0.63	-1.69839438563	0.891838510472
0.64	-1.72695883946	0.908965276597
0.65	-1.77456626249	0.926472902107
0.66	-1.79360923171	0.944313779578
0.67	-1.86978110857	0.962630731279
0.68	-1.93583640804	0.981658818863
0.69	-1.93583640804	1.00101718294
0.7	-1.98344383108	1.02061358414
0.71	-2.04057273873	1.04073366699
0.72	-2.1262661002	1.06156786118
0.73	-2.10722313098	1.08273530734
0.74	-2.10722313098	1.10380753865
0.75	-2.08818016177	1.12478455511
0.76	-2.16435203863	1.14604721611
0.77	-2.15483055402	1.16764312908
0.78	-2.16435203863	1.18923904204
0.79	-2.1262661002	1.21069213273
0.8	-2.07865867716	1.23171675662
0.81	-2.05009422333	1.25236052112
0.82	-1.98344383108	1.2725282114
0.83	-1.93583640804	1.29212461259
0.84	-1.91679343882	1.31138776183
0.85	-1.86025962397	1.33027302714
0.86	-1.86025962397	1.34887562338
0.87	-1.81265220093	1.3672401825
0.88	-1.77456626249	1.38517627482
0.89	-1.75552329328	1.4028267226
0.9	-1.71743735485	1.42019152584
0.91	-1.64126547799	1.43698504
0.92	-1.61270102416	1.45325487252
0.93	-1.56509360112	1.46914384564
0.94	-1.51808127087	1.48455972
0.95	-1.41334494019	1.49921685106
0.96	-1.33717306332	1.51296944107
0.97	-1.28004415568	1.52605552717
0.98	-1.17590291778	1.53833526254
0.99	-1.07116658709	1.54957061006
1	-0.947387287189	1.55966337943
1.01	-0.709945264782	1.56795004219
1.02	-0.396331365511	1.57348142534
1.03	-0.0446315278095	1.57568623981
1.04	0.392761671363	1.57394558909
1.05	0.887283778182	1.56754536184
1.06	1.23898361588	1.55691402487
1.07	1.44786118447	1.54347980087
1.08	1.55259751515	1.52847750737
1.09	1.7138676607	1.5121451815
1.1	1.84716844521	1.49434000097
1.11	1.89477586825	1.4756302794
1.12	1.95190477589	1.45639687618
1.13	1.96083116771	1.43683319646
1.14	1.97035265232	1.41717727736
1.15	1.97035265232	1.39747375084
1.16	1.99891710615	1.37762740204
1.17	2.00843859075	1.35759062356
1.18	2.01796007536	1.33745863023
1.19	2.0655674984	1.31704099236
1.2	2.02748155997	1.29657574707
1.21	2.01796007536	1.27634853889
1.22	2.03700304458	1.25607372329
1.23	2.05604601379	1.235608478
1.24	2.01796007536	1.21523844755
1.25	2.05604601379	1.19486841711
1.26	2.03700304458	1.17440317182
1.27	1.97987413693	1.15431878591
1.28	2.02748155997	1.13428200742
1.29	1.97987413693	1.11424522894
1.3	1.97987413693	1.09444648757
1.31	2.01796007536	1.07445731651
1.32	1.96083116771	1.05456336029
1.33	1.91381883746	1.03519011027
1.34	1.90429735286	1.01609952932
1.35	1.90429735286	0.997056555788
1.36	1.91381883746	0.977965974837
1.37	1.91381883746	0.958827786462
1.38	1.8376469606	0.940070457472
1.39	1.85668992982	0.92159877302
1.4	1.87573289903	0.902936658875
1.41	1.87573289903	0.884179329885
1.42	1.84716844521	0.865564823164
1.43	1.84716844521	0.847093138712
1.44	1.80908250678	0.828811883952
1.45	1.80908250678	0.810721058884
1.46	1.8376469606	0.792487411547
1.47	1.82812547599	0.774158549364
1.48	1.81860399139	0.755924902027
1.49	1.85668992982	0.737548432421
1.5	1.85668992982	0.718981533123
1.51	1.85668992982	0.700414633825
1.52	1.79956102217	0.682133379065
1.53	1.80908250678	0.66409016142
1.54	1.75195359913	0.646284980891
1.55	1.75195359913	0.628765444899
1.56	1.72338914531	0.611388731177
1.57	1.72338914531	0.594154839724
1.58	1.72338914531	0.576920948271
1.59	1.70434617609	0.559782271664
1.6	1.68530320688	0.542834024749
1.61	1.67578172227	0.526028600103
1.62	1.64721726844	0.50941360515
1.63	1.60020493819	0.493176494117
1.64	1.57164048437	0.477317267004
1.65	1.52403306133	0.461838899275
1.66	1.49546860751	0.446741390931
1.67	1.45738266908	0.431977134548
1.68	1.43833969986	0.417498522703
1.69	1.43833969986	0.403115125705
1.7	1.38121079221	0.389017373245
1.71	1.38121079221	0.375205265322
1.72	1.37168930761	0.361440764823
1.73	1.37168930761	0.347723871747
1.74	1.35264633839	0.334102193517
1.75	1.34312485378	0.320623337556
1.76	1.31456039996	0.307334911288
1.77	1.33360336917	0.294094092442
1.78	1.27647446153	0.281043703289
1.79	1.25743149231	0.268374173519
1.8	1.24850510049	0.255844490555
1.81	1.21994064667	0.24350226182
1.82	1.18185470824	0.231493285045
1.83	1.11520431598	0.220007989924
1.84	1.07711837755	0.209046376456
1.85	1.05807540833	0.198370407527
1.86	0.99142501608	0.188122905405
1.87	0.924774623825	0.178541907205
1.88	0.849197839751	0.169672044887
1.89	0.76350447828	0.161608533297
1.9	0.649246662986	0.154544777591
1.91	0.545105425088	0.148573017151
1.92	0.430847609794	0.143693251976
1.93	0.345154248324	0.139813242686
1.94	0.240417917637	0.136885381856
1.95	0.136276679739	0.135001908869
1.96	0.0505833182688	0.134067608879
1.97	-0.0446315278095	0.134037849927
1.98	-0.148772765708	0.135004871394
1.99	-0.253509096394	0.137016280705
2	-0.339202457864	0.139979838476
2.01	-0.434417303943	0.143847937285
2.02	-0.538558541841	0.148712816514
2.03	-0.633773387919	0.154574476163
2.04	-0.71946674939	0.161340676849
2.05	-0.824203080076	0.169059025997
2.06	-0.937865802582	0.17786937041
2.07	-0.985473225621	0.187486065551
2.08	-1.07116658709	0.197769264614
2.09	-1.15685994856	0.208909397293
2.1	-1.25147970185	0.220951095545
2.11	-1.36573751715	0.23403718164
2.12	-1.44190939401	0.248075416195
2.13	-1.54605063191	0.263015216325
2.14	-1.59365805495	0.278713759759
2.15	-1.6603084472	0.29498359227
2.16	-1.72695883946	0.311919928703
2.17	-1.71743735485	0.329141909675
2.18	-1.80313071632	0.346744750031
2.19	-1.81265220093	0.364823664617
2.2	-1.82217368553	0.382997794049
2.21	-1.79360923171	0.401076708636
2.22	-1.79360923171	0.419012800953
2.23	-1.77456626249	0.436853678424
2.24	-1.74600180867	0.454456518779
2.25	-1.7840877471	0.472106966558
2.26	-1.79360923171	0.489995451452
2.27	-1.82217368553	0.508074366039
2.28	-1.82217368553	0.526296102894
2.29	-1.82217368553	0.544517839749
2.3	-1.81265220093	0.562691969181
2.31	-1.81265220093	0.580818491191
2.32	-1.79360923171	0.598849798354
2.33	-1.75552329328	0.616595460979
2.34	-1.73648032406	0.634055479066
2.35	-1.73648032406	0.651420282306
2.36	-1.73648032406	0.668785085547
2.37	-1.72695883946	0.686102281364
2.38	-1.68887290102	0.703181440067
2.39	-1.64126547799	0.719832131962
2.4	-1.62222250877	0.736149571896
2.41	-1.61270102416	0.75232418956
2.42	-1.56509360112	0.768213162687
2.43	-1.55557211651	0.783816491275
2.44	-1.54605063191	0.799324605017
2.45	-1.52700766269	0.81468989649
2.46	-1.50855978626	0.829867733735
2.47	-1.52700766269	0.845045570979
2.48	-1.48951681705	0.860128193378
2.49	-1.48951681705	0.875023361549
2.5	-1.47999533244	0.889870922296
2.51	-1.47999533244	0.904670875621
2.52	-1.47999533244	0.919470828945
2.53	-1.48951681705	0.934318389692
2.54	-1.48951681705	0.949213557863
2.55	-1.47999533244	0.96406111861
2.56	-1.49903830166	0.978956286781
2.57	-1.47047384783	0.993803847528
2.58	-1.47047384783	1.00850858601
2.59	-1.46095236322	1.02316571706
2.6	-1.51808127087	1.03806088523
2.61	-1.49903830166	1.05314648309
2.62	-1.51808127087	1.06823208096
2.63	-1.52700766269	1.08345752563
2.64	-1.52700766269	1.09872760225
2.65	-1.51808127087	1.11395304692
2.66	-1.47999533244	1.12894342994
2.67	-1.46095236322	1.14364816841
2.68	-1.44190939401	1.1581624772
2.69	-1.41334494019	1.17243874887
2.7	-1.36573751715	1.18633416116
2.71	-1.34669454793	1.19989632148
2.72	-1.32765157871	1.21326805212
2.73	-1.28004415568	1.22630653079
2.74	-1.28004415568	1.23910697235
2.75	-1.28004415568	1.2519074139
2.76	-1.24195821724	1.26451742577
2.77	-1.19435079421	1.27669897082
2.78	-1.17590291778	1.28855023938
2.79	-1.13781697935	1.30011883887
2.8	-1.09973104091	1.31130657897
2.81	-1.04260213327	1.32201824484
2.82	-1.01403767944	1.33230144391
2.83	-0.994994710229	1.34234660585
2.84	-0.956908771797	1.35210612326
2.85	-0.928344317974	1.36153238871
2.86	-0.909301348758	1.37072061705
2.87	-0.852172441111	1.379527986
2.88	-0.80516011086	1.38781464876
2.89	-0.748031203213	1.39558060533
2.9	-0.633773387919	1.40248962828
2.91	-0.509994088017	1.40820846566
2.92	-0.329680973256	1.41240684097
2.93	-0.13032488928	1.41470687028
2.94	0.0791477720923	1.41496275587
2.95	0.3165897945	1.41298406803
2.96	0.545105425088	1.40867559194
2.97	0.706375570633	1.40241818696
2.98	0.830154870535	1.39473553475
2.99	0.906326747398	1.38605312666
3	0.915253139217	1.37694522723
3.01	1.03903243912	1.36717379934
3.02	1.07711837755	1.35659304525
3.03	1.15329025441	1.34544100209
3.04	1.16281173902	1.33386049213
3.05	1.18185470824	1.32213715989
3.06	1.21994064667	1.31012818312
3.07	1.24850510049	1.29778595438
3.08	1.24850510049	1.28530090338
3.09	1.26695297692	1.27272361299
3.1	1.27647446153	1.2600064758
3.11	1.30503891535	1.24709890891
3.12	1.31456039996	1.23400091234
3.13	1.35264633839	1.22066487864
3.14	1.34312485378	1.20718602268
3.15	1.37168930761	1.19361195188
3.16	1.37168930761	1.1798950588
3.17	1.38121079221	1.1661305583
3.18	1.40977524604	1.15217562811
3.19	1.40025376143	1.13812548307
3.2	1.39073227682	1.12417055288
3.21	1.40977524604	1.11016801527
3.22	1.42881821525	1.09597504796
3.23	1.44786118447	1.08159165096
3.24	1.47642563829	1.06697021685
3.25	1.50499009211	1.0520631382
3.26	1.53355454594	1.03687041501
3.27	1.53355454594	1.02153486955
3.28	1.51451157672	1.00629453893
3.29	1.53355454594	0.991054208319
3.3	1.57164048437	0.975528233168
3.31	1.57164048437	0.959811828324
3.32	1.60913133001	0.943907969252
3.33	1.60913133001	0.927816655952
3.34	1.61865281462	0.911677735229
3.35	1.62817429923	0.895443599659
3.36	1.61865281462	0.87920946409
3.37	1.60020493819	0.863115175326
3.38	1.64721726844	0.846878064293
3.39	1.61865281462	0.830548713878
3.4	1.61865281462	0.814362185732
3.41	1.60913133001	0.798223265008
3.42	1.58116196898	0.782271798513
3.43	1.55259751515	0.766603001093
3.44	1.53355454594	0.751172240787
3.45	1.55259751515	0.735741480482
3.46	1.53355454594	0.720310720176
3.47	1.4859471229	0.705213211832
3.48	1.4859471229	0.690353740603
3.49	1.44786118447	0.675684699066
3.5	1.45738266908	0.661158479799
3.51	1.44786118447	0.646632260531
3.52	1.41929673064	0.632296470955
3.53	1.41929673064	0.618103503649
3.54	1.38121079221	0.604100966035
3.55	1.362167823	0.590384072959
3.56	1.34312485378	0.576857609575
3.57	1.32408188457	0.563521575883
3.58	1.30503891535	0.550375971883
3.59	1.29551743074	0.537373190153
3.6	1.27647446153	0.524513230692
3.61	1.24850510049	0.511888332881
3.62	1.22946213128	0.499498496723
3.63	1.21041916206	0.487299090256
3.64	1.21041916206	0.475194898635
3.65	1.20089767745	0.463138314438
3.66	1.17233322363	0.451272159932
3.67	1.15329025441	0.439644042542
3.68	1.15329025441	0.428111139998
3.69	1.12472580059	0.416721059723
3.7	1.07711837755	0.405711838832
3.71	1.03903243912	0.395131084749
3.72	1.02951095451	0.384788367781
3.73	1.00094650069	0.374636080505
3.74	0.962860562257	0.36481704519
3.75	0.924774623825	0.35537886926
3.76	0.89680526279	0.346270969827
3.77	0.877762293574	0.337398132045
3.78	0.877762293574	0.328620509109
3.79	0.849197839751	0.319985708442
3.8	0.849197839751	0.311493730045
3.81	0.849197839751	0.303001751647
3.82	0.849197839751	0.29450977325
3.83	0.839676355143	0.286065402275
3.84	0.820633385927	0.27776385357
3.85	0.839676355143	0.269462304865
3.86	0.811111901319	0.261208363582
3.87	0.801590416711	0.253144851992
3.88	0.753982993672	0.24536698494
3.89	0.687332601417	0.238160406965
3.9	0.582596270731	0.231810762604
3.91	0.487976517441	0.226457898663
3.92	0.307068309892	0.222482674527
3.93	0.107712225916	0.220408771848
3.94	-0.186858704139	0.220804504239
3.95	-0.481429634194	0.22414594593
3.96	-0.795638626252	0.230531287233
3.97	-1.04260213327	0.23972249103
3.98	-1.20387227881	0.250954863091
3.99	-1.26100118646	0.263279230417
4	-1.28956564028	0.276032064551
4.01	-1.38478048636	0.289403795184
4.02	-1.4323879094	0.303489637163
4.03	-1.47047384783	0.318003945949
4.04	-1.4323879094	0.332518254735
4.05	-1.47999533244	0.347080170944
4.06	-1.50855978626	0.362022946538
4.07	-1.47999533244	0.376965722131
4.08	-1.47999533244	0.391765675456
4.09	-1.50855978626	0.406708451049
4.1	-1.51808127087	0.421841656335
4.11	-1.54605063191	0.437162315849
4.12	-1.51808127087	0.452482975363
4.13	-1.51808127087	0.467663788071
4.14	-1.51808127087	0.48284460078
4.15	-1.52700766269	0.498070045448
4.16	-1.54605063191	0.513435336921
4.17	-1.55557211651	0.528943450663
4.18	-1.56509360112	0.544546779251
4.19	-1.55557211651	0.560150107839
4.2	-1.56509360112	0.575753436427
4.21	-1.55557211651	0.591356765015
4.22	-1.55557211651	0.606912486181
4.23	-1.50855978626	0.622233145694
4.24	-1.52700766269	0.637410982939
4.25	-1.52700766269	0.652681059566
4.26	-1.5365291473	0.667998743616
4.27	-1.54605063191	0.683411642512
4.28	-1.51808127087	0.698732302026
4.29	-1.52700766269	0.713957746694
4.3	-1.55557211651	0.72937064559
4.31	-1.56509360112	0.744973974178
4.32	-1.56509360112	0.760624910189
4.33	-1.54605063191	0.776180631354
4.34	-1.54605063191	0.791641137673
4.35	-1.56509360112	0.807196858839
4.36	-1.58413657034	0.822943009696
4.37	-1.58413657034	0.838784375399
4.38	-1.57461508573	0.85457813368
4.39	-1.60317953955	0.870467106806
4.4	-1.58413657034	0.886403687355
4.41	-1.51808127087	0.901914776561
4.42	-1.52700766269	0.917140221229
4.43	-1.54605063191	0.932505512702
4.44	-1.49903830166	0.94773095737
4.45	-1.47047384783	0.962578518118
4.46	-1.46095236322	0.977235649173
4.47	-1.4323879094	0.991702350536
4.48	-1.4323879094	1.00602622963
4.49	-1.45143087862	1.02044532357
4.5	-1.39430197097	1.03467398782
4.51	-1.40382345558	1.04866461495
4.52	-1.42286642479	1.06279806435
4.53	-1.39430197097	1.07688390633
4.54	-1.39430197097	1.09082692604
4.55	-1.41334494019	1.1048651606
4.56	-1.40382345558	1.11895100258
4.57	-1.42286642479	1.13308445198
4.58	-1.40382345558	1.14721790138
4.59	-1.44190939401	1.16144656563
4.6	-1.40382345558	1.17567522988
4.61	-1.41334494019	1.18976107185
4.62	-1.40382345558	1.20384691383
4.63	-1.41334494019	1.21793275581
4.64	-1.38478048636	1.23192338294
4.65	-1.4323879094	1.24600922492
4.66	-1.40382345558	1.26019028175
4.67	-1.38478048636	1.27413330146
4.68	-1.36573751715	1.28788589148
4.69	-1.37525900175	1.30159087407
4.7	-1.36573751715	1.31529585666
4.71	-1.32765157871	1.32876280214
4.72	-1.28956564028	1.34184888824
4.73	-1.28956564028	1.35474454464
4.74	-1.28004415568	1.36759259362
4.75	-1.21339376342	1.38005978322
4.76	-1.17590291778	1.39200626662
4.77	-1.13781697935	1.40357486611
4.78	-1.09973104091	1.41476260621
4.79	-1.03308064866	1.42542666466
4.8	-0.956908771797	1.43537661176
4.81	-0.890258379543	1.44461244752
4.82	-0.824203080076	1.45318475481
4.83	-0.757552687821	1.46109353365
4.84	-0.681380810958	1.46828820115
4.85	-0.605208934096	1.47472114987
4.86	-0.519515572625	1.48034477241
4.87	-0.396331365511	1.4849240071
4.88	-0.291595034825	1.4883636391
4.89	-0.177337219531	1.49070830037
4.9	-0.0636744970252	1.49191335895
4.91	0.0505833182688	1.49197881485
4.92	0.155319648955	1.49094930001
4.93	0.268982371461	1.48882778991
4.94	0.383240186755	1.48556667712
4.95	0.44989057901	1.48140102329
4.96	0.487976517441	1.47671168781
4.97	0.526062455872	1.47164149294
4.98	0.554626909696	1.46623804611
4.99	0.545105425088	1.46073938444
5	0.563553301516	1.45519609081
5.01	0.601639239947	1.4493701281
5.02	0.639725178378	1.44316330601
5.03	0.658768147594	1.43667083938
5.04	0.696854086025	1.42989272821
5.05	0.753982993672	1.42263854281
5.06	0.801590416711	1.41486067576
5.07	0.849197839751	1.40660673448
5.08	0.887283778182	1.39792432639
5.09	0.943817593041	1.38876881953
5.1	0.981903531472	1.37914021391
5.11	1.06759689294	1.36889271179
5.12	1.1342472852	1.3578834909
5.13	1.21041916206	1.34616015866
5.14	1.26695297692	1.33377329796
5.15	1.32408188457	1.32081812366
5.16	1.34312485378	1.30748208996
5.17	1.37168930761	1.29390801916
5.18	1.40025376143	1.28004830381
5.19	1.42881821525	1.26590294393
5.2	1.44786118447	1.25151954693
5.21	1.45738266908	1.23699332766
5.22	1.4859471229	1.2222766787
5.23	1.49546860751	1.20736960005
5.24	1.49546860751	1.19241491398
5.25	1.52403306133	1.17731740563
5.26	1.53355454594	1.1620294676
5.27	1.53355454594	1.14669392214
5.28	1.53355454594	1.13135837668
5.29	1.55259751515	1.11592761637
5.3	1.53355454594	1.10049685607
5.31	1.55259751515	1.08506609576
5.32	1.55259751515	1.06954012061
5.33	1.57164048437	1.05391893061
5.34	1.60020493819	1.0380597035
5.35	1.62817429923	1.02191780731
5.36	1.57164048437	1.00591873339
5.37	1.60913133001	0.990014874321
5.38	1.59068345359	0.974015800403
5.39	1.59068345359	0.958108965868
5.4	1.62817429923	0.942014677103
5.41	1.60913133001	0.925828148957
5.42	1.61865281462	0.909689228234
5.43	1.56211899976	0.893785369162
5.44	1.57164048437	0.878116571742
5.45	1.54307603055	0.862542989167
5.46	1.56211899976	0.847017014015
5.47	1.57164048437	0.831348216595
5.48	1.57164048437	0.815631811751
5.49	1.60020493819	0.799772584638
5.5	1.58116196898	0.783865750102
5.51	1.57164048437	0.768101737836
5.52	1.57164048437	0.752385332992
5.53	1.55259751515	0.736764142994
5.54	1.52403306133	0.721380990112
5.55	1.52403306133	0.706140659499
5.56	1.4859471229	0.691090758577
5.57	1.49546860751	0.676183679925
5.58	1.4859471229	0.661276601273
5.59	1.47642563829	0.646464737467
5.6	1.4859471229	0.631652873661
5.61	1.46690415368	0.616888617279
5.62	1.44786118447	0.602314790588
5.63	1.41929673064	0.587979001012
5.64	1.40977524604	0.573833641129
5.65	1.39073227682	0.559831103515
5.66	1.33360336917	0.546209425285
5.67	1.34312485378	0.53282578417
5.68	1.33360336917	0.519442143055
5.69	1.33360336917	0.506106109363
5.7	1.29551743074	0.492960505364
5.71	1.29551743074	0.480005331056
5.72	1.29551743074	0.467050156749
5.73	1.26695297692	0.454237804711
5.74	1.25743149231	0.441615882365
5.75	1.23898361588	0.429133806824
5.76	1.21994064667	0.416839185511
5.77	1.21041916206	0.404687386467
5.78	1.20089767745	0.39263080227
5.79	1.18185470824	0.380717040341
5.8	1.17233322363	0.368946100682
5.81	1.15329025441	0.357317983292
5.82	1.15329025441	0.345785080748
5.83	1.15329025441	0.334252178204
5.84	1.1342472852	0.322814490505
5.85	1.11520431598	0.3115672325
5.86	1.11520431598	0.30041518934
5.87	1.10568283137	0.289310753603
5.88	1.10568283137	0.278253925289
5.89	1.08663986216	0.267292311822
5.9	1.06759689294	0.256521128046
5.91	1.02951095451	0.246035588809
5.92	1.0199894699	0.235788086687
5.93	0.972382046864	0.225826229103
5.94	0.934296108433	0.216292838327
5.95	0.915253139217	0.207045092088
5.96	0.868240808966	0.198127622347
5.97	0.801590416711	0.189778466219
5.98	0.715897055241	0.182191028859
5.99	0.620682209163	0.175508132537
6	0.526062455872	0.169774409212
6.01	0.392761671363	0.165180288576
6.02	0.202927071994	0.162201844859
6.03	-0.0636744970252	0.161505581984
6.04	-0.405852850119	0.16385321872
6.05	-0.824203080076	0.170003498371
6.06	-1.20387227881	0.180143875165
6.07	-1.5365291473	0.193845882296
6.08	-1.6603084472	0.209830070268
6.09	-1.97392234647	0.228001224237
6.1	-2.24945030731	0.249118087506
6.11	-2.57258569119	0.273228267498
6.12	-2.69636499109	0.29957302091
6.13	-2.90583765246	0.327584034127
6.14	-3.06710779801	0.35744876138
6.15	-3.14327967487	0.388500698744
6.16	-3.25753749016	0.420504784569
6.17	-3.33311427424	0.453458043391
6.18	-3.39024318189	0.487074830672
6.19	-3.51402248179	0.52159615899
6.2	-3.57115138943	0.557022028346
6.21	-3.65624965812	0.593159033584
6.22	-3.7609859888	0.630245211819
6.23	-3.79907192723	0.668045501399
6.24	-3.84667935027	0.706274257786
6.25	-3.94189419635	0.745217125519
6.26	-3.8752438041	0.784302815522
6.27	-4.05555691886	0.823956819137
6.28	-4.16981473415	0.865083677402
6.29	-4.06507840347	0.90625814309
6.3	-4.16981473415	0.947432608778
6.31	-4.36917081813	0.990127536539
6.32	-4.39773527195	1.03396206699
6.33	-4.37869230274	1.07784420486
6.34	-4.4548641796	1.12201198727
6.35	-4.30311551866	1.16580188577
6.36	-4.40725675656	1.20935374714
6.37	-4.47390714881	1.25375956667
6.38	-4.51199308725	1.29868906785
6.39	-4.50247160264	1.3437613913
6.4	-4.39773527195	1.38826242567
6.41	-4.27455106484	1.43162385736
6.42	-4.40725675656	1.47503289646
6.43	-4.44534269499	1.51929589372
6.44	-4.32156339509	1.56313042417
6.45	-4.35012784891	1.60648888039
6.46	-4.36917081813	1.65008537373
6.47	-4.39773527195	1.69391990418
6.48	-4.32156339509	1.73751639751
6.49	-4.30311551866	1.78063979208
6.5	-4.20790067258	1.82319487304
6.51	-4.16981473415	1.86508345007
6.52	-4.23646512641	1.90711484937
6.53	-4.24598661101	1.94952710806
6.54	-4.1031643419	1.99127286282
6.55	-3.9889065266	2.03173321717
6.56	-3.81811489645	2.07076832428
6.57	-3.71337856576	2.10842579159
6.58	-3.59019435865	2.14494365622
6.59	-3.64672817351	2.18112826888
6.6	-3.47593654336	2.21674159246
6.61	-3.35215724345	2.25088206139
6.62	-3.19088709791	2.2835972831
6.63	-2.99093592115	2.3145063982
6.64	-2.85823022942	2.34375222895
6.65	-2.67732202187	2.37142999021
6.66	-2.54461633015	2.39753968197
6.67	-2.37322960721	2.42212891165
6.68	-2.20243797706	2.44500724957
6.69	-2.06913719255	2.46636512542
6.7	-1.86025962397	2.4860121095
6.71	-1.72695883946	2.50394820182
6.72	-1.47047384783	2.51993536526
6.73	-1.31813009411	2.53387838497
6.74	-1.21339376342	2.54653600426
6.75	-1.06164510248	2.55791119859
6.76	-0.947387287189	2.56795636053
6.77	-0.795638626252	2.5766714901
6.78	-0.709945264782	2.58419940956
6.79	-0.605208934096	2.59077518055
6.8	-0.548080026449	2.59654162535
6.81	-0.472503242374	2.6016445417
6.82	-0.396331365511	2.60598871474
6.83	-0.301116519433	2.60947595416
6.84	-0.196380188747	2.6119634377
6.85	-0.111281920064	2.61350174825
6.86	-0.0636744970252	2.61437653033
6.87	-0.0160670739861	2.61477523819
6.88	0.0124973798374	2.61479308666
6.89	0.0696262874844	2.61438246832
6.9	0.117233710524	2.61344816833
6.91	0.136276679739	2.61218061638
6.92	0.136276679739	2.61081784958
6.93	0.117233710524	2.60955029763
6.94	0.0886692567001	2.60852078279
6.95	0.0505833182688	2.60782451992
6.96	0.0601048028766	2.60727107931
6.97	0.107712225916	2.60643199417
6.98	0.155319648955	2.6051168348
6.99	0.202927071994	2.60332560119
7	0.212448556602	2.60124872305
7.01	0.164841133563	2.5993622746
7.02	0.117233710524	2.59795190038
7.03	0.0315403490531	2.59720803008
7.04	-0.0351100432017	2.59722587855
7.05	-0.101760435457	2.59791023094
7.06	-0.101760435457	2.5989278353
7.07	-0.0636744970252	2.59975500996
7.08	0.00297589522961	2.60005850297
7.09	0.0601048028766	2.59974309948
7.1	0.126755195131	2.59880879949
7.11	0.183884102778	2.597255603
7.12	0.212448556602	2.5952739397
7.13	0.268982371461	2.59286678506
7.14	0.326111279108	2.58989131681
7.15	0.411804640578	2.58620173721
7.16	0.507019486657	2.58160761657
7.17	0.63020369377	2.57592150067
7.18	0.792068932104	2.56881013754
7.19	1.00094650069	2.55984506038
7.2	1.25743149231	2.54855317041
7.21	1.53355454594	2.53459824022
7.22	1.81860399139	2.51783744754
7.23	2.08461046762	2.49832137524
7.24	2.31253100542	2.47633566788
7.25	2.52200366679	2.45216299451
7.26	2.70231678155	2.42604139227
7.27	2.89274647371	2.398066076
7.28	2.98796131978	2.36866253703
7.29	3.08258107307	2.33830982507
7.3	3.13970998072	2.3071983698
7.31	3.15875294994	2.27570605514
7.32	3.28253224984	2.24349962914
7.33	3.38667348774	2.21015360046
7.34	3.41523794156	2.17614404331
7.35	3.57710317989	2.1411823377
7.36	3.63423208754	2.10512566137
7.37	3.70980887162	2.06840545657
7.38	3.83358817152	2.03068847135
7.39	3.86215262534	1.99220976737
7.4	3.96688895603	1.95306455946
7.41	4.03353934828	1.91306241794
7.42	4.12815910157	1.87225392569
7.43	4.11863761696	1.8310199421
7.44	4.14720207079	1.78969074366
7.45	4.19480949383	1.74798068584
7.46	4.22337394765	1.70588976863
7.47	4.26145988608	1.66346559946
7.48	4.24241691687	1.62094621545
7.49	4.05198722471	1.57947419474
7.5	3.96688895603	1.53937981383
7.51	4.11863761696	1.49895218097
7.52	4.00497489446	1.45833411841
7.53	3.90976004838	1.4187604437
7.54	3.78598074848	1.38028173971
7.55	3.70980887162	1.34280279161
7.56	3.77645926387	1.30537145094
7.57	3.79550223309	1.26751164345
7.58	3.78598074848	1.22960422854
7.59	3.77645926387	1.19179202848
7.6	3.61518911833	1.15483378657
7.61	3.60566763372	1.11872950281
7.62	3.55806021068	1.08291086359
7.63	3.67231802597	1.04675897241
7.64	3.68183951058	1.00998818472
7.65	3.64375357215	0.973360219309
7.66	3.59614614911	0.937160720703
7.67	3.45332387999	0.901913370557
7.68	3.44380239538	0.86742773918
7.69	3.34858754931	0.833465789457
7.7	3.34858754931	0.799979913964
7.71	3.31109670366	0.766681492699
7.72	3.17779591915	0.734237029585
7.73	3.19683888837	0.702363855547
7.74	3.03497365004	0.671204792855
7.75	2.94035389675	0.641328155121
7.76	2.91178944292	0.612067438423
7.77	2.82609608145	0.583378010801
7.78	2.74040271998	0.555545516794
7.79	2.62673999747	0.528709803207
7.8	2.57913257444	0.502680440347
7.81	2.49343921297	0.47731758141
7.82	2.36965991306	0.45300208578
7.83	2.33157397463	0.429495916341
7.84	2.28456164438	0.406415238246
7.85	2.23695422134	0.383807658918
7.86	2.21791125213	0.36153333155
7.87	2.15126085987	0.33968747099
7.88	2.08461046762	0.318508114353
7.89	2.03700304458	0.297900046792
7.9	1.93286180668	0.278050722536
7.91	1.88525438364	0.258960141584
7.92	1.79956102217	0.240536064555
7.93	1.75195359913	0.222778491449
7.94	1.7138676607	0.205449385149
7.95	1.64721726844	0.188643960504
7.96	1.63769578384	0.172219395242
7.97	1.56211899976	0.156220321324
7.98	1.53355454594	0.140741953596
7.99	1.53355454594	0.125406408136
8	1.49546860751	0.110261292369
8.01	1.49546860751	0.095306606294
8.02	1.45738266908	0.0805423499111
8.03	1.42881821525	0.0661113454894
8.04	1.38121079221	0.0520612004521
8.05	1.362167823	0.0383443073761
8.06	1.29551743074	0.0250558811074
8.07	1.21994064667	0.0124785907203
8.08	1.15329025441	0.000612436214904
8.09	1.07711837755	-0.0105396069449
8.1	0.972382046864	-0.020787109067
8.11	0.877762293574	-0.0300378307692
8.12	0.782547447496	-0.0383393794745
8.13	0.639725178378	-0.0454507426039
8.14	0.53558394048	-0.0513272881982
8.15	0.430847609794	-0.0561594459495
8.16	0.307068309892	-0.059849025548
8.17	0.174362618171	-0.0622561801883
8.18	-0.0160670739861	-0.0630476579092
8.19	-0.301116519433	-0.0614617399421
8.2	-0.700423780174	-0.0564540384441
8.21	-1.13781697935	-0.0472628346465
8.22	-1.58413657034	-0.033653066898
8.23	-1.89775046961	-0.0162436316983
8.24	-2.32562218417	0.00487323157065
8.25	-2.67732202187	0.0298879526008
8.26	-2.95284998271	0.0580388126237
8.27	-3.13375819026	0.0884718534886
8.28	-3.29502833581	0.120615786119
8.29	-3.35215724345	0.153851714015
8.3	-3.2855068512	0.187040034488
8.31	-3.4092861511	0.2205139995
8.32	-3.26646388198	0.253892749665
8.33	-3.23849452095	0.28641754168
8.34	-3.26646388198	0.318942333695
8.35	-3.19088709791	0.351229088594
8.36	-3.2855068512	0.38361105834
8.37	-3.26646388198	0.416370912006
8.38	-3.20993006713	0.448752881751
8.39	-2.99093592115	0.479757211693
8.4	-2.98141443654	0.509618963481
8.41	-3.00045740575	0.539528322692
8.42	-2.98141443654	0.569437681904
8.43	-2.83918726021	0.598540690388
8.44	-2.80110132178	0.626742133298
8.45	-2.67732202187	0.654134250016
8.46	-2.66780053727	0.680859862812
8.47	-2.62971459884	0.707347438492
8.48	-2.57258569119	0.733358939942
8.49	-2.55413781476	0.758992557472
8.5	-2.62971459884	0.78491181954
8.51	-2.45892296868	0.810355007378
8.52	-2.40179406104	0.834658592526
8.53	-2.43035851486	0.858819355406
8.54	-2.28753624574	0.882408829209
8.55	-2.23040733809	0.904998547128
8.56	-2.20243797706	0.927162773704
8.57	-2.14530906941	0.948901508936
8.58	-2.1262661002	0.970259384784
8.59	-2.05961570794	0.991188793825
8.6	-2.0120082849	1.01154691379
8.61	-1.96440086186	1.03142895952
8.62	-1.96440086186	1.05107296814
8.63	-1.92631492343	1.07052654707
8.64	-1.89775046961	1.08964687403
8.65	-1.86978110857	1.10848453192
8.66	-1.82217368553	1.12694430589
8.67	-1.76504477789	1.14488039821
8.68	-1.72695883946	1.1623404163
8.69	-1.66982993181	1.17932436015
8.7	-1.58413657034	1.19559419267
8.71	-1.54605063191	1.21124512868
8.72	-1.50855978626	1.22651818077
8.73	-1.39430197097	1.24103248955
8.74	-1.36573751715	1.25483268699
8.75	-1.26100118646	1.26796638051
8.76	-1.17590291778	1.28015090103
8.77	-1.05212361788	1.29129103371
8.78	-0.890258379543	1.3010029437
8.79	-0.71946674939	1.30905156934
8.8	-0.519515572625	1.31524648095
8.81	-0.291595034825	1.31930203399
8.82	0.0220188644453	1.32064991484
8.83	0.364197217539	1.31871883443
8.84	0.696854086025	1.31341357791
8.85	0.962860562257	1.30511500467
8.86	1.12472580059	1.29467707286
8.87	1.15329025441	1.28328699258
8.88	1.40977524604	1.27047166508
8.89	1.57164048437	1.25556458643
8.9	1.75195359913	1.23894661601
8.91	1.91381883746	1.22061775383
8.92	2.01796007536	1.20095885927
8.93	2.11317492144	1.18030318428
8.94	2.21791125213	1.15864775341
8.95	2.32205249002	1.1359479347
8.96	2.37918139767	1.11244176526
8.97	2.40774585149	1.08850712902
8.98	2.45535327453	1.06419163339
8.99	2.46487475914	1.03959049322
9	2.44583178993	1.01503696047
9.01	2.44583178993	0.990578642576
9.02	2.43631030532	0.966167932099
9.03	2.38870288228	0.942042866161
9.04	2.37918139767	0.918203444762
9.05	2.35061694385	0.894554453054
9.06	2.26551867517	0.871473774959
9.07	2.26551867517	0.848818588207
9.08	2.29408312899	0.826020579186
9.09	2.29408312899	0.803079747896
9.1	2.28456164438	0.78018652403
9.11	2.29408312899	0.757293300163
9.12	2.30300952081	0.734307836914
9.13	2.34109545924	0.711087312013
9.14	2.27504015977	0.688006633918
9.15	2.30300952081	0.665116385516
9.16	2.27504015977	0.642226137113
9.17	2.17982531369	0.619951809745
9.18	2.16078234448	0.598248771454
9.19	2.17982531369	0.576545733164
9.2	2.17030382909	0.55479508745
9.21	2.13221789066	0.533282478851
9.22	2.12269640605	0.512007907367
9.23	2.12269640605	0.490780943307
9.24	2.11317492144	0.469601586669
9.25	2.11317492144	0.448469837455
9.26	2.0655674984	0.427576125356
9.27	2.0655674984	0.406920450372
9.28	2.04652452919	0.386359990234
9.29	1.98939562154	0.36618038948
9.3	1.97987413693	0.346334040688
9.31	1.91381883746	0.326865575816
9.32	1.85668992982	0.30801303198
9.33	1.84716844521	0.289493740104
9.34	1.80908250678	0.271212485344
9.35	1.79003953756	0.253216875123
9.36	1.68530320688	0.235840161401
9.37	1.63769578384	0.219225166447
9.38	1.59068345359	0.20308327026
9.39	1.47642563829	0.1877477248
9.4	1.37168930761	0.173507150071
9.41	1.26695297692	0.160313938648
9.42	1.10568283137	0.148450759607
9.43	0.924774623825	0.138298472331
9.44	0.696854086025	0.130190328782
9.45	0.468933548225	0.12436139061
9.46	0.174362618171	0.121144909778
9.47	-0.196380188747	0.121254997631
9.48	-0.652816357135	0.125500980361
9.49	-1.11877401013	0.134358932197
9.5	-1.51808127087	0.147543208602
9.51	-1.79360923171	0.164101661115
9.52	-1.98344383108	0.182986926429
9.53	-2.23040733809	0.204056182275
9.54	-2.40179406104	0.22721718927
9.55	-2.53509484555	0.251901633803
9.56	-2.67732202187	0.27796371814
9.57	-2.7058864757	0.304879760628
9.58	-2.75349389874	0.3321766625
9.59	-2.80110132178	0.359949638603
9.6	-2.77253686795	0.387817829552
9.61	-2.75349389874	0.415447983385
9.62	-2.74397241413	0.442935314949
9.63	-2.69636499109	0.470137001976
9.64	-2.68684350648	0.497053044463
9.65	-2.60115014501	0.523493012721
9.66	-2.62019311423	0.549599729017
9.67	-2.69636499109	0.576182519544
9.68	-2.64875756805	0.602908132339
9.69	-2.66780053727	0.629490922866
9.7	-2.60115014501	0.655835676277
9.71	-2.55413781476	0.681612116076
9.72	-2.4779659379	0.70677263484
9.73	-2.55413781476	0.731933153603
9.74	-2.52557336094	0.757331709481
9.75	-2.50653039172	0.782492228245
9.76	-2.45892296868	0.807319495047
9.77	-2.41131554564	0.831670687618
9.78	-2.4779659379	0.856117095036
9.79	-2.39227257643	0.880468287608
9.8	-2.38275109182	0.904343405949
9.81	-2.40179406104	0.928266131713
9.82	-2.37322960721	0.952141250054
9.83	-2.38275109182	0.97592115355
9.84	-2.3637081226	0.999653449622
9.85	-2.354186638	1.02324292342
9.86	-2.34466515339	1.04673718238
9.87	-2.31610069957	1.07004101165
9.88	-2.33514366878	1.09329723349
9.89	-2.33514366878	1.11664867018
9.9	-2.29705773035	1.13980967717
9.91	-2.26849327653	1.16263743221
9.92	-2.26849327653	1.18532236497
9.93	-2.24945030731	1.20791208289
9.94	-2.23040733809	1.23031137112
9.95	-2.20243797706	1.25247559769
9.96	-2.18339500784	1.27440476262
9.97	-2.1357875848	1.29600067558
9.98	-2.10722313098	1.31721572916
9.99	-2.06913719255	1.33809753078
10	-2.06913719255	1.3587889027
10.01	-2.07865867716	1.37952788205
10.02	-2.14530906941	1.40064772078
10.03	-2.1262661002	1.42200559663
10.04	-2.09770164637	1.44312543537
10.05	-2.1262661002	1.4642452741
10.06	-2.07865867716	1.48526989798
10.07	-2.04057273873	1.50586605506
10.08	-1.93583640804	1.5257481008
10.09	-1.94535789265	1.5451540723
10.1	-1.87870750039	1.56427439927
10.11	-1.7840877471	1.5825883755
10.12	-1.69839438563	1.60000078617
10.13	-1.5365291473	1.61617540383
10.14	-1.47047384783	1.63121041881
10.15	-1.35621603254	1.64534386821
10.16	-1.1848293096	1.65804909492
10.17	-1.09020955631	1.66942428925
10.18	-0.890258379543	1.67932662893
10.19	-0.71946674939	1.68737525457
10.2	-0.472503242374	1.69333510453
10.21	-0.22494464257	1.69682234396
10.22	0.0601048028766	1.69764654316
10.23	0.364197217539	1.69552503305
10.24	0.668289632202	1.69036259881
10.25	0.89680526279	1.68253712433
10.26	1.0199894699	1.67295315067
10.27	1.02951095451	1.66270564855
10.28	1.11520431598	1.65198207219
10.29	1.17233322363	1.64054438449
10.3	1.22946213128	1.62853540772
10.31	1.27647446153	1.61600572476
10.32	1.32408188457	1.60300294303
10.33	1.40025376143	1.5893812648
10.34	1.4859471229	1.57495026037
10.35	1.58116196898	1.55961471491
10.36	1.66626023766	1.54337760388
10.37	1.79956102217	1.52604849758
10.38	1.94238329129	1.50733877601
10.39	2.07508898301	1.48725141464
10.4	2.19886828291	1.46588162831
10.41	2.25599719056	1.44360730095
10.42	2.32205249002	1.42071705254
10.43	2.35061694385	1.39735370537
10.44	2.39822436689	1.37360949882
10.45	2.40774585149	1.34957964773
10.46	2.46487475914	1.32521654468
10.47	2.49343921297	1.30042497481
10.48	2.541046636	1.27525254557
10.49	2.541046636	1.24984207921
10.5	2.61721851287	1.22405075347
10.51	2.62673999747	1.19783096091
10.52	2.58865405904	1.17175399063
10.53	2.56008960522	1.14601027231
10.54	2.55056812061	1.12045698368
10.55	2.56008960522	1.09490369505
10.56	2.59817554365	1.06911236931
10.57	2.51248218218	1.04355908068
10.58	2.50296069757	1.01848186628
10.59	2.47439624375	0.993595081573
10.6	2.48391772836	0.968803511712
10.61	2.52200366679	0.943773904737
10.62	2.51248218218	0.918601475492
10.63	2.52200366679	0.893429046247
10.64	2.49343921297	0.868351831848
10.65	2.44583178993	0.843655476834
10.66	2.37918139767	0.819530410896
10.67	2.32205249002	0.796024241457
10.68	2.32205249002	0.772803716557
10.69	2.28456164438	0.749770645885
10.7	2.28456164438	0.726925029441
10.71	2.25599719056	0.704222235266
10.72	2.17030382909	0.682090730168
10.73	2.17982531369	0.660340084454
10.74	2.19886828291	0.638446616471
10.75	2.12269640605	0.616838793026
10.76	2.04652452919	0.59599268835
10.77	2.00843859075	0.575717872751
10.78	1.98939562154	0.555728701689
10.79	1.92334032207	0.536165021971
10.8	1.90429735286	0.517026833596
10.81	1.8376469606	0.498317112029
10.82	1.76147508374	0.480321501807
10.83	1.78051805295	0.462611536124
10.84	1.7138676607	0.445139607556
10.85	1.65673875305	0.428286575487
10.86	1.64721726844	0.41176679538
10.87	1.60913133001	0.395485052387
10.88	1.60020493819	0.379438371046
10.89	1.53355454594	0.363769573626
10.9	1.4859471229	0.348672065281
10.91	1.43833969986	0.334050631168
10.92	1.40977524604	0.319810056438
10.93	1.34312485378	0.306045555939
10.94	1.32408188457	0.292709522247
10.95	1.29551743074	0.279611525671
10.96	1.27647446153	0.266751566209
10.97	1.22946213128	0.254221883245
10.98	1.21994064667	0.241974869356
10.99	1.19137619284	0.229918285158
11	1.15329025441	0.218194952922
11.01	1.10568283137	0.206900087493
11.02	1.0104679853	0.19631933341
11.03	0.934296108433	0.186595512941
11.04	0.811111901319	0.177868472892
11.05	0.658768147594	0.170519072648
11.06	0.468933548225	0.164880564168
11.07	0.23089643303	0.161381414262
11.08	-0.101760435457	0.160735734274
11.09	-0.472503242374	0.163607052663
11.1	-0.909301348758	0.170516075619
11.11	-1.27052267107	0.181415195718
11.12	-1.54605063191	0.195498062233
11.13	-1.59365805495	0.211196605667
11.14	-1.91679343882	0.228748863136
11.15	-2.11674461559	0.248916553408
11.16	-2.33514366878	0.27117599483
11.17	-2.51605187633	0.295431972556
11.18	-2.62971459884	0.321160804932
11.19	-2.78205835256	0.348219669689
11.2	-2.90583765246	0.376659149714
11.21	-3.04806482879	0.40642866212
11.22	-3.15280115948	0.437432992061
11.23	-3.20993006713	0.469246648194
11.24	-3.30454982042	0.501819047632
11.25	-3.36167872806	0.535150190374
11.26	-3.46641505875	0.569290659309
11.27	-3.60923732787	0.604668921242
11.28	-3.66577114273	0.641043963595
11.29	-3.81811489645	0.678463393791
11.3	-3.90380825792	0.717073009562
11.31	-3.90380825792	0.756111092142
11.32	-3.93237271174	0.79529199699
11.33	-3.78002895802	0.833854005339
11.34	-3.78002895802	0.871654294919
11.35	-3.82763638106	0.909692621614
11.36	-3.8752438041	0.94820702254
11.37	-4.04603543425	0.987813418732
11.38	-3.99842801121	1.02803573596
11.39	-3.979385042	1.06792480123
11.4	-3.91332974253	1.10738837515
11.41	-3.89428677331	1.14642645773
11.42	-4.06507840347	1.18622328361
11.43	-3.92285122714	1.22616293176
11.44	-3.92285122714	1.26539144404
11.45	-4.00794949582	1.30504544765
11.46	-3.979385042	1.34498212034
11.47	-3.96986355739	1.38472836334
11.48	-3.91332974253	1.42414432984
11.49	-3.8752438041	1.46308719757
11.5	-3.84667935027	1.50169681334
11.51	-3.81811489645	1.54002078457
11.52	-3.78955044263	1.57805911127
11.53	-3.74194301959	1.61571657858
11.54	-3.57115138943	1.65228205063
11.55	-3.51402248179	1.68770791998
11.56	-3.51402248179	1.7228481448
11.57	-3.46641505875	1.7577503325
11.58	-3.36167872806	1.79189080144
11.59	-3.19088709791	1.82465363057
11.6	-3.09567225183	1.85608642732
11.61	-3.02902185958	1.88670989787
11.62	-3.02902185958	1.91700011647
11.63	-2.90583765246	1.94667441403
11.64	-2.86775171403	1.97554236086
11.65	-2.75349389874	2.00364858892
11.66	-2.57258569119	2.03027898687
11.67	-2.44940148407	2.05538892275
11.68	-2.38275109182	2.07954968563
11.69	-2.31610069957	2.10304394459
11.7	-2.22088585349	2.12572887735
11.71	-2.1357875848	2.14751224454
11.72	-1.99296531569	2.16815600905
11.73	-1.90727195422	2.1876571954
11.74	-1.82217368553	2.20630442359
11.75	-1.75552329328	2.22419290849
11.76	-1.62222250877	2.2410816375
11.77	-1.54605063191	2.2569230032
11.78	-1.47047384783	2.2720056256
11.79	-1.39430197097	2.28632950469
11.8	-1.29908712489	2.29979645017
11.81	-1.26100118646	2.31259689173
11.82	-1.26100118646	2.3252069036
11.83	-1.23243673264	2.33767409319
11.84	-1.16638143317	2.34966818402
11.85	-1.13781697935	2.36118917608
11.86	-1.09020955631	2.37232930876
11.87	-1.07116658709	2.38313618948
11.88	-1.02355916405	2.39360981823
11.89	-0.994994710229	2.40370258761
11.9	-0.966430256405	2.41350971244
11.91	-0.928344317974	2.42298358531
11.92	-0.871215410327	2.43198138395
11.93	-0.824203080076	2.4404584764
11.94	-0.757552687821	2.44836725524
11.95	-0.71946674939	2.45575235243
11.96	-0.67185932635	2.46270898281
11.97	-0.681380810958	2.46947518349
11.98	-0.700423780174	2.47638420645
11.99	-0.700423780174	2.48338844425
12	-0.690902295566	2.49034507463
12.01	-0.633773387919	2.49696845305
12.02	-0.557601511056	2.50292532754
12.03	-0.453460273158	2.50798063646
12.04	-0.367766911688	2.51208677239
12.05	-0.263030581002	2.51524075985
12.06	-0.148772765708	2.51729977659
12.07	-0.0255885585939	2.51817158321
12.08	0.164841133563	2.51747532033
12.09	0.402283155971	2.51463969888
12.1	0.696854086025	2.50914401267
12.11	0.99142501608	2.50070261716
12.12	1.26695297692	2.4894107272
12.13	1.42881821525	2.47593187124
12.14	1.82812547599	2.45964715278
12.15	2.24647570595	2.43927414687
12.16	2.67375232773	2.4146730067
12.17	3.09210255768	2.38584373228
12.18	3.43428091078	2.35321181493
12.19	3.77645926387	2.31715811406
12.2	4.09007316314	2.27782545193
12.21	4.26145988608	2.23606778668
12.22	4.47985893927	2.19236119255
12.23	4.632202693	2.14680088439
12.24	4.85060174619	2.0993868622
12.25	5.05055292296	2.04988108885
12.26	4.95533807688	1.99985163385
12.27	4.77442986933	1.95120279412
12.28	4.66076714682	1.90402680904
12.29	4.9839025307	1.85580346065
12.3	5.11660822242	1.80530090689
12.31	5.20230158389	1.75370635785
12.32	4.99342401531	1.70272772986
12.33	5.02198846913	1.65265066744
12.34	5.20230158389	1.60152921717
12.35	5.18325861468	1.54960141618
12.36	5.14517267625	1.49795925972
12.37	5.0880437686	1.4467931775
12.38	5.06959589217	1.3960049792
12.39	5.05055292296	1.34540423512
12.4	5.02198846913	1.29504152816
12.41	5.19278009929	1.24396768532
12.42	5.18325861468	1.19208749175
12.43	5.22134455311	1.14006447591
12.44	4.9839025307	1.08903824049
12.45	4.86964471541	1.03977050426
12.46	4.94581659227	0.99069319772
12.47	4.9839025307	0.941044602105
12.48	5.06007440756	0.890824717414
12.49	4.99342401531	0.8405572253
12.5	4.87916620001	0.791194274223
12.51	4.75538690011	0.743021508723
12.52	4.78395135394	0.695324817452
12.53	4.86964471541	0.647056837106
12.54	4.74586541551	0.598979286451
12.55	4.72741753908	0.551612871678
12.56	4.74586541551	0.504246456905
12.57	4.86964471541	0.456168906251
12.58	4.76490838472	0.40799614075
12.59	4.632202693	0.361010585361
12.6	4.71789605447	0.314260091624
12.61	4.57507378535	0.267795242425
12.62	4.69885308525	0.221425608072
12.63	4.69885308525	0.174437077219
12.64	4.56555230074	0.128115050289
12.65	4.31858879373	0.083694344817
12.66	4.29954582451	0.0406036717258
12.67	4.29002433991	-0.00234417909625
12.68	4.16624504	-0.0446255259958
12.69	4.21385246304	-0.086526013511
12.7	4.17576652461	-0.128474108449
12.71	4.00497489446	-0.169377815545
12.72	3.75741629465	-0.20818977149
12.73	3.5866246645	-0.244909976286
12.74	3.45332387999	-0.280109719008
12.75	3.33966115749	-0.314074644196
12.76	3.09210255768	-0.346233462772
12.77	2.82609608145	-0.375824455967
12.78	2.59817554365	-0.402945814093
12.79	2.40774585149	-0.427975421068
12.8	2.32205249002	-0.451624412776
12.81	2.17030382909	-0.474086194372
12.82	2.13221789066	-0.49559880297
12.83	2.08461046762	-0.516682944762
12.84	2.01796007536	-0.537195797477
12.85	1.97035265232	-0.557137361115
12.86	1.90429735286	-0.576510611141
12.87	1.8376469606	-0.595220332708
12.88	1.80908250678	-0.613453980045
12.89	1.74243211452	-0.631211553152
12.9	1.72338914531	-0.648540659451
12.91	1.7138676607	-0.665726943481
12.92	1.65673875305	-0.68257997555
12.93	1.63769578384	-0.699052148234
12.94	1.62817429923	-0.715381498649
12.95	1.59068345359	-0.731475787413
12.96	1.53355454594	-0.747096977411
12.97	1.50499009211	-0.762289700601
12.98	1.47642563829	-0.777196779253
12.99	1.40977524604	-0.791627783675
13	1.42881821525	-0.805820750981
13.01	1.40977524604	-0.820013718288
13.02	1.39073227682	-0.834016255902
13.03	1.35264633839	-0.847733148978
13.04	1.34312485378	-0.861212004939
13.05	1.33360336917	-0.874595646054
13.06	1.29551743074	-0.887741250053
13.07	1.24850510049	-0.90046136271
13.08	1.21994064667	-0.912803591445
13.09	1.16281173902	-0.924717353374
13.1	1.12472580059	-0.936155041072
13.11	1.09616134677	-0.947259476809
13.12	1.03903243912	-0.957935445738
13.13	0.981903531472	-0.968040125591
13.14	0.915253139217	-0.977525908945
13.15	0.839676355143	-0.986300556416
13.16	0.753982993672	-0.99426885316
13.17	0.63020369377	-1.0011897866
13.18	0.53558394048	-1.00701872477
13.19	0.421326125186	-1.0118032751
13.2	0.307068309892	-1.01544524727
13.21	0.212448556602	-1.01804283161
13.22	0.0696262874844	-1.01945320583
13.23	-0.0541530124174	-1.0195305722
13.24	-0.177337219531	-1.01837312104
13.25	-0.263030581002	-1.01617128204
13.26	-0.348723942472	-1.01311250942
13.27	-0.424895819335	-1.00924441061
13.28	-0.519515572625	-1.00452235365
13.29	-0.595687449488	-0.998946338542
13.3	-0.633773387919	-0.992799034355
13.31	-0.690902295566	-0.986175655937
13.32	-0.786117141644	-0.978790558751
13.33	-0.880736894935	-0.970456288568
13.34	-1.02355916405	-0.960934808273
13.35	-1.22291524803	-0.949702436213
13.36	-1.39430197097	-0.936616350118
13.37	-1.5365291473	-0.921962194527
13.38	-1.79360923171	-0.905311502631
13.39	-1.94535789265	-0.88661666701
13.4	-2.11674461559	-0.866306154468
13.41	-2.2399288227	-0.844522787277
13.42	-2.37322960721	-0.821456995127
13.43	-2.53509484555	-0.796915372864
13.44	-2.64875756805	-0.770996110796
13.45	-2.79157983717	-0.74379442377
13.46	-2.80110132178	-0.715831017975
13.47	-2.8296657756	-0.687677182488
13.48	-2.87727319864	-0.659142487617
13.49	-2.95284998271	-0.62999187171
13.5	-2.86775171403	-0.600888863226
13.51	-2.87727319864	-0.572163738663
13.52	-2.87727319864	-0.543391006677
13.53	-2.96237146732	-0.514192783347
13.54	-3.02902185958	-0.484235816712
13.55	-2.96237146732	-0.454278850078
13.56	-2.96237146732	-0.424655135405
13.57	-2.96237146732	-0.395031420731
13.58	-2.99093592115	-0.365264883789
13.59	-2.95284998271	-0.33554595427
13.6	-2.95284998271	-0.306017454443
13.61	-3.04806482879	-0.276012880385
13.62	-3.04806482879	-0.245532232097
13.63	-3.01950037497	-0.215194406078
13.64	-2.95284998271	-0.18533265429
13.65	-3.00997889036	-0.155518509925
13.66	-3.04806482879	-0.125228291329
13.67	-2.95284998271	-0.0952237172714
13.68	-3.04806482879	-0.0652191432139
13.69	-2.97189295193	-0.0351193543103
13.7	-3.01950037497	-0.0051623876758
13.71	-2.85823022942	0.0242262653462
13.72	-2.82014429099	0.0526181379482
13.73	-2.76301538335	0.0805339363199
13.74	-2.80110132178	0.108354519846
13.75	-2.82014429099	0.136460747909
13.76	-2.8296657756	0.164709798242
13.77	-2.8296657756	0.193006455998
13.78	-2.84870874482	0.2213983286
13.79	-2.78205835256	0.249552164087
13.8	-2.75349389874	0.277229925344
13.81	-2.7058864757	0.304526827216
13.82	-2.68684350648	0.331490477127
13.83	-2.68684350648	0.358358912192
13.84	-2.72492944491	0.385417776949
13.85	-2.7058864757	0.412571856552
13.86	-2.73445092952	0.439773543578
13.87	-2.76301538335	0.467260875142
13.88	-2.65827905266	0.494367347322
13.89	-2.64875756805	0.520902530426
13.9	-2.64875756805	0.547390106106
13.91	-2.61067162962	0.573687252095
13.92	-2.64875756805	0.599984398083
13.93	-2.62971459884	0.626376758917
13.94	-2.65827905266	0.652816727175
13.95	-2.60115014501	0.679113873163
13.96	-2.60115014501	0.705125374613
13.97	-2.51605187633	0.73071138472
13.98	-2.4779659379	0.755681473791
13.99	-2.4779659379	0.78046113317
14	-2.30657921496	0.804383858935
14.01	-2.32562218417	0.82754486593
14.02	-2.354186638	0.850943910041
14.03	-2.38275109182	0.87462859869
14.04	-2.34466515339	0.898265679916
14.05	-2.34466515339	0.92171233145
14.06	-2.31610069957	0.945016160715
14.07	-2.29705773035	0.968081952865
14.08	-2.29705773035	0.991052530168
14.09	-2.24945030731	1.01378507036
14.1	-2.19291649245	1.03599690436
14.11	-2.17387352324	1.05783085443
14.12	-2.16435203863	1.07952198224
14.13	-2.1357875848	1.10102268036
14.14	-2.1357875848	1.12238055621
14.15	-2.03105125412	1.1432147504
14.16	-1.97392234647	1.16323961841
14.17	-1.888228985	1.18255037506
14.18	-1.80313071632	1.20100717357
14.19	-1.72695883946	1.21865762135
14.2	-1.58413657034	1.2352130984
14.21	-1.47047384783	1.25048615049
14.22	-1.37525900175	1.26471481474
14.23	-1.27052267107	1.2779437231
14.24	-1.1848293096	1.290220483
14.25	-1.11877401013	1.3017384996
14.26	-1.04260213327	1.31254538032
14.27	-1.01403767944	1.32282857938
14.28	-0.975951741013	1.33277852649
14.29	-0.909301348758	1.34220479193
14.3	-0.842650956503	1.35096455346
14.31	-0.728988233997	1.35882274941
14.32	-0.624251903311	1.3655889501
14.33	-0.529037057233	1.3713553949
14.34	-0.415374334727	1.37607745186
14.35	-0.386809880903	1.38008837294
14.36	-0.367766911688	1.3838612569
14.37	-0.329680973256	1.38734849633
14.38	-0.263030581002	1.3903120541
14.39	-0.177337219531	1.3925138931
14.4	-0.0160670739861	1.39348091457
14.41	0.212448556602	1.39249900716
14.42	0.487976517441	1.38899688179
14.43	0.753982993672	1.38278708423
14.44	0.99142501608	1.37406004418
14.45	1.16281173902	1.36328886041
14.46	1.24850510049	1.35123227621
14.47	1.52403306133	1.3373695854
14.48	1.73291062991	1.32108486694
14.49	1.87573289903	1.3030416493
14.5	2.00843859075	1.28362079185
14.51	2.08461046762	1.26315554656
14.52	2.14173937526	1.24202379734
14.53	2.22743273673	1.22017793678
14.54	2.30300952081	1.1975257255
14.55	2.40774585149	1.17397194863
14.56	2.46487475914	1.14960884558
14.57	2.56008960522	1.12448402376
14.58	2.57913257444	1.09878791286
14.59	2.64578296669	1.07266333516
14.6	2.63626148208	1.04625311291
14.61	2.71183826616	1.01951261417
14.62	2.71183826616	0.992394231509
14.63	2.7689671738	0.964990204309
14.64	2.81657459684	0.937062495456
14.65	2.78801014302	0.909039571756
14.66	2.83561756606	0.880921433211
14.67	2.7689671738	0.852898509512
14.68	2.80705311224	0.825018408081
14.69	2.79753162763	0.796995484382
14.7	2.78801014302	0.769067775529
14.71	2.82609608145	0.740997244407
14.72	2.79753162763	0.712879105861
14.73	2.7689671738	0.685046611854
14.74	2.71183826616	0.657642584654
14.75	2.71183826616	0.630524201993
14.76	2.71183826616	0.603405819331
14.77	2.70231678155	0.576335044092
14.78	2.70231678155	0.549311876277
14.79	2.67375232773	0.522431530731
14.8	2.66423084312	0.495741614876
14.81	2.63626148208	0.46923915325
14.82	2.63626148208	0.442876538429
14.83	2.64578296669	0.416466316186
14.84	2.62673999747	0.390103701365
14.85	2.62673999747	0.36383630139
14.86	2.58865405904	0.337759331108
14.87	2.52200366679	0.312206042478
14.88	2.43631030532	0.287414472618
14.89	2.44583178993	0.263003762142
14.9	2.4172673361	0.238688266511
14.91	2.39822436689	0.214610807997
14.92	2.32205249002	0.191009423712
14.93	2.28456164438	0.16797635304
14.94	2.26551867517	0.145225951442
14.95	2.21791125213	0.122808801806
14.96	2.17982531369	0.100820118977
14.97	2.15126085987	0.0791646881088
14.98	2.09413195222	0.0579377240484
14.99	2.05604601379	0.0371868342183
15	2.02748155997	0.0167691963495
15.01	2.00843859075	-0.00341040440406
15.02	1.95190477589	-0.0232121212373
15.03	1.93286180668	-0.0426359541501
15.04	1.89477586825	-0.0617741425248
15.05	1.82812547599	-0.080388649246
15.06	1.72338914531	-0.0981462223525
15.07	1.67578172227	-0.11514207669
15.08	1.55259751515	-0.131283972877
15.09	1.33360336917	-0.145714977299
15.1	1.06759689294	-0.15772097861
15.11	0.744461509064	-0.16678127062
15.12	0.335632763716	-0.172181741984
15.13	-0.167815734923	-0.173020827127
15.14	-0.757552687821	-0.168393985014
15.15	-1.37525900175	-0.157729926566
15.16	-1.86025962397	-0.141552333437
15.17	-1.97392234647	-0.122381423585
15.18	-2.42083703025	-0.100407626702
15.19	-2.62019311423	-0.0752024759791
15.2	-2.79157983717	-0.0481436112221
15.21	-2.85823022942	-0.0198945608892
15.22	-2.96237146732	0.00920844759453
15.23	-2.97189295193	0.0388797696908
15.24	-3.07662928262	0.0691223808635
15.25	-3.07662928262	0.0998886736897
15.26	-3.08615076722	0.130702573939
15.27	-3.07662928262	0.161516474188
15.28	-3.15280115948	0.192663626399
15.29	-3.11471522105	0.224001208301
15.3	-3.09567225183	0.255053145666
15.31	-3.16232264409	0.286343120145
15.32	-3.1813656133	0.318061561432
15.33	-3.16232264409	0.349780002719
15.34	-3.1813656133	0.381498444006
15.35	-3.13375819026	0.413074063024
15.36	-3.09567225183	0.444221215234
15.37	-3.13375819026	0.475368367445
15.38	-3.13375819026	0.506705949347
15.39	-3.20040858252	0.538376783211
15.4	-3.15280115948	0.570142831921
15.41	-3.03854334418	0.60109955444
15.42	-3.02902185958	0.631437380458
15.43	-3.03854334418	0.661775206477
15.44	-2.97189295193	0.691827387958
15.45	-3.02902185958	0.721831962015
15.46	-3.08615076722	0.752407825149
15.47	-3.00045740575	0.782840866014
15.48	-2.91476404428	0.812416973264
15.49	-2.97189295193	0.841850258245
15.5	-2.97189295193	0.871569187765
15.51	-2.95284998271	0.901192902438
15.52	-2.89631616785	0.930438733191
15.53	-2.91476404428	0.959494134251
15.54	-2.85823022942	0.98835910562
15.55	-2.85823022942	1.01694140791
15.56	-2.81062280638	1.04528567309
15.57	-2.74397241413	1.0730586492
15.58	-2.74397241413	1.10049837334
15.59	-2.5916286604	1.12717637871
15.6	-2.5821071758	1.15304505789
15.61	-2.53509484555	1.178631068
15.62	-2.49700890711	1.20379158676
15.63	-2.45892296868	1.22857124614
15.64	-2.38275109182	1.25277961644
15.65	-2.31610069957	1.2762738754
15.66	-2.24945030731	1.29910163043
15.67	-2.25897179192	1.32164374093
15.68	-2.07865867716	1.34333189327
15.69	-1.94535789265	1.36345197612
15.7	-1.86978110857	1.38252767113
15.71	-1.76504477789	1.40070180056
15.72	-1.54605063191	1.41725727761
15.73	-1.34669454793	1.43172100351
15.74	-1.1848293096	1.4443786228
15.75	-0.956908771797	1.45508731321
15.76	-0.709945264782	1.46342158339
15.77	-0.44393878855	1.46919100365
15.78	-0.167815734923	1.47224977627
15.79	0.155319648955	1.4723122567
15.8	0.497498002049	1.46904816845
15.81	0.839676355143	1.46236229666
15.82	1.02951095451	1.45301636011
15.83	1.11520431598	1.44229278376
15.84	1.10568283137	1.43118834802
15.85	1.20089767745	1.41965544548
15.86	1.24850510049	1.40740843159
15.87	1.28599594613	1.39473592636
15.88	1.33360336917	1.38163792978
15.89	1.38121079221	1.36806385897
15.9	1.42881821525	1.35401371394
15.91	1.52403306133	1.33924945755
15.92	1.62817429923	1.32348842075
15.93	1.72338914531	1.30673060353
15.94	1.89477586825	1.28863977846
15.95	2.02748155997	1.26902849132
15.96	2.16078234448	1.2480871718
15.97	2.17982531369	1.22638413351
15.98	2.25599719056	1.20420502098
15.99	2.28456164438	1.18150222681
16	2.36965991306	1.15823111902
16.01	2.38870288228	1.13443930505
16.02	2.45535327453	1.11021902426
16.03	2.44583178993	1.08571309894
16.04	2.51248218218	1.06092152908
16.05	2.5315251514	1.03570149241
16.06	2.63626148208	1.00986255924
16.07	2.67375232773	0.983312490194
16.08	2.74040271998	0.956241714956
16.09	2.74992420459	0.928790080333
16.1	2.7594456892	0.901243230864
16.11	2.72135975077	0.873839203664
16.12	2.78801014302	0.846292354195
16.13	2.74040271998	0.81865028988
16.14	2.78801014302	0.791008225565
16.15	2.83561756606	0.76289008702
16.16	2.85466053527	0.734438696513
16.17	2.85466053527	0.705892091161
16.18	2.90226795831	0.677107448693
16.19	2.93083241214	0.64794194684
16.2	2.92131092753	0.618681230142
16.21	2.91178944292	0.58951572829
16.22	2.92131092753	0.560350226438
16.23	2.94035389675	0.531041902316
16.24	2.94987538135	0.501590755926
16.25	2.93083241214	0.472187216958
16.26	2.87370350449	0.443164537375
16.27	2.84513905067	0.414570324599
16.28	2.78801014302	0.386404578631
16.29	2.78801014302	0.358524477201
16.3	2.82609608145	0.330453946078
16.31	2.7689671738	0.302478629802
16.32	2.67375232773	0.275265032294
16.33	2.67375232773	0.248527509017
16.34	2.62673999747	0.222025047391
16.35	2.56008960522	0.196090899378
16.36	2.48391772836	0.17087086271
16.37	2.47439624375	0.146079292849
16.38	2.36965991306	0.121859012065
16.39	2.38870288228	0.0980671980884
16.4	2.33157397463	0.0744658138038
16.41	2.24647570595	0.0515755654009
16.42	2.20838976752	0.0293012380336
16.43	2.15126085987	0.00750298489663
16.44	2.0655674984	-0.0135811568947
16.45	2.01796007536	-0.0339987947635
16.46	1.97987413693	-0.053987965825
16.47	1.91381883746	-0.0734564306969
16.48	1.84716844521	-0.0922613671103
16.49	1.79003953756	-0.110447407024
16.5	1.7138676607	-0.127966943015
16.51	1.65673875305	-0.144819975084
16.52	1.63769578384	-0.161292147769
16.53	1.55259751515	-0.177243614264
16.54	1.51451157672	-0.192579159723
16.55	1.46690415368	-0.207486238375
16.56	1.40977524604	-0.221869635374
16.57	1.34312485378	-0.235634135873
16.58	1.33360336917	-0.249017776987
16.59	1.27647446153	-0.262068166141
16.6	1.23898361588	-0.274645456528
16.61	1.19137619284	-0.286797255572
16.62	1.11520431598	-0.298330158116
16.63	1.07711837755	-0.309291771583
16.64	1.0199894699	-0.319777310821
16.65	0.99142501608	-0.32983438325
16.66	0.934296108433	-0.339462988873
16.67	0.89680526279	-0.348618495729
16.68	0.849197839751	-0.357348511242
16.69	0.811111901319	-0.365650059947
16.7	0.773025962888	-0.373570749268
16.71	0.706375570633	-0.380967756936
16.72	0.649246662986	-0.387745868104
16.73	0.611160724555	-0.394047905042
16.74	0.563553301516	-0.399921475172
16.75	0.507019486657	-0.405274339113
16.76	0.459412063617	-0.410106496864
16.77	0.440369094402	-0.414605402654
16.78	0.392761671363	-0.418771056483
16.79	0.364197217539	-0.422555850928
16.8	0.3165897945	-0.425959785988
16.81	0.268982371461	-0.428887646818
16.82	0.240417917637	-0.431434648263
16.83	0.23089643303	-0.433791220016
16.84	0.23089643303	-0.436100184347
16.85	0.23089643303	-0.438409148677
16.86	0.221374948422	-0.440670505584
16.87	0.23089643303	-0.442931862492
16.88	0.221374948422	-0.445193219399
16.89	0.212448556602	-0.447362336924
16.9	0.202927071994	-0.449439215067
16.91	0.183884102778	-0.451373270941
16.92	0.174362618171	-0.453164504546
16.93	0.155319648955	-0.454812915881
16.94	0.126755195131	-0.456223290102
16.95	0.107712225916	-0.457395627207
16.96	0.0791477720923	-0.458329927197
16.97	0.0601048028766	-0.459026190072
16.98	0.0505833182688	-0.459579630677
16.99	0.0505833182688	-0.46008546386
17	0.0410618336609	-0.46054368962
17.01	0.0410618336609	-0.460954307956
17.02	0.0601048028766	-0.461460141139
17.03	0.0791477720923	-0.462156404014
17.04	0.0981907413079	-0.463043096581
17.05	0.117233710524	-0.46412021884
17.06	0.136276679739	-0.465387770791
17.07	0.136276679739	-0.466750537589
17.08	0.145798164347	-0.468160911809
17.09	0.145798164347	-0.469618893453
17.1	0.136276679739	-0.471029267673
17.11	0.136276679739	-0.47239203447
17.12	0.136276679739	-0.473754801268
17.13	0.126755195131	-0.475069960642
17.14	0.126755195131	-0.476337512594
17.15	0.117233710524	-0.477557457122
17.16	0.107712225916	-0.478682186804
17.17	0.0886692567001	-0.479664094217
17.18	0.0601048028766	-0.480407964515
17.19	0.0410618336609	-0.480913797698
17.2	0.00297589522961	-0.481133986342
17.21	-0.0160670739861	-0.481068530448
17.22	-0.0351100432017	-0.480812644862
17.23	-0.0636744970252	-0.480318722161
17.24	-0.0636744970252	-0.479681977191
17.25	-0.073195981633	-0.478997624798
17.26	-0.0636744970252	-0.478313272404
17.27	-0.0827174662409	-0.477581312588
17.28	-0.073195981633	-0.476801745349
17.29	-0.073195981633	-0.476069785532
17.3	-0.0636744970252	-0.475385433139
17.31	-0.0636744970252	-0.474748688169
17.32	-0.0446315278095	-0.474207158045
17.33	-0.0446315278095	-0.473760842767
17.34	-0.0255885585939	-0.473409742335
17.35	-0.0351100432017	-0.473106249326
17.36	-0.0351100432017	-0.472755148894
17.37	-0.0446315278095	-0.472356441039
17.38	-0.0351100432017	-0.471957733183
17.39	-0.0446315278095	-0.471559025328
17.4	-0.0446315278095	-0.47111271005
17.41	-0.0636744970252	-0.470571179926
17.42	-0.0446315278095	-0.470029649802
17.43	-0.0351100432017	-0.469630941947
17.44	-0.0446315278095	-0.469232234092
17.45	-0.0351100432017	-0.468833526237
17.46	-0.0446315278095	-0.468434818382
17.47	-0.0351100432017	-0.468036110527
17.48	-0.0255885585939	-0.467732617518
17.49	-0.0255885585939	-0.467476731932
17.5	-0.0160670739861	-0.467268453769
17.51	-0.0255885585939	-0.467060175606
17.52	-0.0351100432017	-0.466756682597
17.53	-0.0255885585939	-0.466453189588
17.54	-0.0446315278095	-0.466102089156
17.55	-0.0446315278095	-0.465655773878
17.56	-0.0636744970252	-0.465114243754
17.57	-0.0922389508487	-0.464334676514
17.58	-0.1392512811	-0.463177225355
17.59	-0.158294250316	-0.461689497698
17.6	-0.167815734923	-0.460058947771
17.61	-0.158294250316	-0.458428397845
17.62	-0.148772765708	-0.456893062765
17.63	-0.148772765708	-0.455405335108
17.64	-0.148772765708	-0.453917607451
17.65	-0.1392512811	-0.452477487217
17.66	-0.120803404672	-0.451177213788
17.67	-0.13032488928	-0.449921572318
17.68	-0.120803404672	-0.448665930848
17.69	-0.120803404672	-0.447457896802
17.7	-0.13032488928	-0.446202255332
17.71	-0.13032488928	-0.444899006439
17.72	-0.1392512811	-0.443551125587
17.73	-0.1392512811	-0.442158612776
17.74	-0.148772765708	-0.440718492542
17.75	-0.1392512811	-0.439278372308
17.76	-0.167815734923	-0.437743037228
17.77	-0.167815734923	-0.436064879879
17.78	-0.177337219531	-0.434339115107
17.79	-0.177337219531	-0.432565742911
17.8	-0.186858704139	-0.430744763293
17.81	-0.196380188747	-0.428828568828
17.82	-0.196380188747	-0.426864766941
17.83	-0.215423157963	-0.424805750207
17.84	-0.243987611786	-0.422508696359
17.85	-0.253509096394	-0.420021212818
17.86	-0.272552065609	-0.417390907008
17.87	-0.291595034825	-0.414570171506
17.88	-0.301116519433	-0.411606613734
17.89	-0.329680973256	-0.408452626271
17.9	-0.348723942472	-0.405060601692
17.91	-0.348723942472	-0.401573362268
17.92	-0.367766911688	-0.397990907997
17.93	-0.386809880903	-0.394218024034
17.94	-0.386809880903	-0.390349925225
17.95	-0.405852850119	-0.38638661157
17.96	-0.405852850119	-0.382328083068
17.97	-0.405852850119	-0.378269554567
17.98	-0.405852850119	-0.374211026066
17.99	-0.386809880903	-0.370247712411
18	-0.386809880903	-0.366379613602
18.01	-0.367766911688	-0.362606729639
18.02	-0.329680973256	-0.359119490214
18.03	-0.310638004041	-0.355917895328
18.04	-0.282073550217	-0.352954337556
18.05	-0.253509096394	-0.350276424323
18.06	-0.243987611786	-0.347788940783
18.07	-0.215423157963	-0.345491886934
18.08	-0.186858704139	-0.343480477623
18.09	-0.167815734923	-0.341707105428
18.1	-0.148772765708	-0.340124162925
18.11	-0.120803404672	-0.338776282073
18.12	-0.120803404672	-0.337568248026
18.13	-0.120803404672	-0.336360213979
18.14	-0.120803404672	-0.335152179933
18.15	-0.101760435457	-0.334039360732
18.16	-0.111281920064	-0.332974148955
18.17	-0.101760435457	-0.331908937177
18.18	-0.101760435457	-0.330891332822
18.19	-0.0827174662409	-0.329968943314
18.2	-0.0922389508487	-0.329094161228
18.21	-0.0827174662409	-0.328219379143
18.22	-0.073195981633	-0.327439811904
18.23	-0.0636744970252	-0.32675545951
18.24	-0.0636744970252	-0.32611871454
18.25	-0.0446315278095	-0.325577184416
18.26	-0.0255885585939	-0.325226083984
18.27	-0.0255885585939	-0.324970198398
18.28	-0.0351100432017	-0.324666705389
18.29	-0.0446315278095	-0.324267997534
18.3	-0.0255885585939	-0.323916897102
18.31	-0.0255885585939	-0.323661011516
18.32	-0.0255885585939	-0.32340512593
18.33	-0.0351100432017	-0.323101632921
18.34	-0.0541530124174	-0.322655317643
18.35	-0.073195981633	-0.322018572673
18.36	-0.0922389508487	-0.32119139801
18.37	-0.0922389508487	-0.320269008502
18.38	-0.0827174662409	-0.319394226416
18.39	-0.0636744970252	-0.3186622666
18.4	-0.0541530124174	-0.318073129053
18.41	-0.0351100432017	-0.317626813775
18.42	-0.0255885585939	-0.317323320766
18.43	-0.0255885585939	-0.31706743518
18.44	-0.0160670739861	-0.316859157017
18.45	-0.0255885585939	-0.316650878854
18.46	-0.0160670739861	-0.316442600691
18.47	-0.0255885585939	-0.316234322528
18.48	-0.0255885585939	-0.315978436942
18.49	-0.0255885585939	-0.315722551356
18.5	-0.0255885585939	-0.31546666577
18.51	-0.0351100432017	-0.315163172761
18.52	-0.0446315278095	-0.314764464906
18.53	-0.0541530124174	-0.314270542205
18.54	-0.0541530124174	-0.313729012081
18.55	-0.0351100432017	-0.313282696803
18.56	-0.0351100432017	-0.312931596371
18.57	-0.0351100432017	-0.312580495939
18.58	-0.0255885585939	-0.31227700293
18.59	-0.0255885585939	-0.312021117344
18.6	-0.0255885585939	-0.311765231758
18.61	-0.0255885585939	-0.311509346172
18.62	-0.0351100432017	-0.311205853163
18.63	-0.0541530124174	-0.310759537885
18.64	-0.0446315278095	-0.310265615184
18.65	-0.0446315278095	-0.309819299906
18.66	-0.0255885585939	-0.309468199474
18.67	-0.0255885585939	-0.309212313888
18.68	-0.0255885585939	-0.308956428302
18.69	-0.0255885585939	-0.308700542716
18.7	-0.0351100432017	-0.308397049707
18.71	-0.0351100432017	-0.308045949275
18.72	-0.0446315278095	-0.30764724142
18.73	-0.0446315278095	-0.307200926142
18.74	-0.0541530124174	-0.306707003441
18.75	-0.0636744970252	-0.306117865893
18.76	-0.0636744970252	-0.305481120923
18.77	-0.0636744970252	-0.304844375953
18.78	-0.0636744970252	-0.304207630983
18.79	-0.0636744970252	-0.303570886012
18.8	-0.0636744970252	-0.302934141042
18.81	-0.0636744970252	-0.302297396072
18.82	-0.0446315278095	-0.301755865948
18.83	-0.0636744970252	-0.301214335824
18.84	-0.0446315278095	-0.300672805699
18.85	-0.0446315278095	-0.300226490421
18.86	-0.0446315278095	-0.299780175143
18.87	-0.0351100432017	-0.299381467288
18.88	-0.0351100432017	-0.299030366856
18.89	-0.0446315278095	-0.298631659001
18.9	-0.0446315278095	-0.298185343723
18.91	-0.0446315278095	-0.297739028445
18.92	-0.0541530124174	-0.297245105744
18.93	-0.0446315278095	-0.296751183043
18.94	-0.0636744970252	-0.296209652918
18.95	-0.0636744970252	-0.295572907948
18.96	-0.073195981633	-0.294888555555
18.97	-0.0636744970252	-0.294204203162
18.98	-0.0636744970252	-0.293567458191
18.99	-0.0636744970252	-0.292930713221
19	-0.0636744970252	-0.292293968251
19.01	-0.0541530124174	-0.291704830704
19.02	-0.0541530124174	-0.291163300579
19.03	-0.073195981633	-0.290526555609
19.04	-0.0636744970252	-0.289842203216
19.05	-0.0636744970252	-0.289205458246
19.06	-0.073195981633	-0.288521105852
19.07	-0.073195981633	-0.287789146036
19.08	-0.101760435457	-0.286914363951
19.09	-0.13032488928	-0.285753937327
19.1	-0.148772765708	-0.284358449052
19.11	-0.148772765708	-0.282870721395
19.12	-0.148772765708	-0.281382993738
19.13	-0.1392512811	-0.279942873504
19.14	-0.13032488928	-0.278594992652
19.15	-0.120803404672	-0.277339351182
19.16	-0.101760435457	-0.276226531981
19.17	-0.0922389508487	-0.27525653505
19.18	-0.0922389508487	-0.274334145541
19.19	-0.0636744970252	-0.273554578302
19.2	-0.073195981633	-0.272870225909
19.21	-0.073195981633	-0.272138266092
19.22	-0.0636744970252	-0.271453913699
19.23	-0.0922389508487	-0.27067434646
19.24	-0.0922389508487	-0.269751956951
19.25	-0.0827174662409	-0.268877174866
19.26	-0.0827174662409	-0.268050000203
19.27	-0.0827174662409	-0.267222825541
19.28	-0.0922389508487	-0.266348043456
19.29	-0.0827174662409	-0.26547326137
19.3	-0.073195981633	-0.264693694131
19.31	-0.0827174662409	-0.263914126891
19.32	-0.0827174662409	-0.263086952229
19.33	-0.073195981633	-0.26230738499
19.34	-0.073195981633	-0.261575425173
19.35	-0.073195981633	-0.260843465357
19.36	-0.073195981633	-0.260111505541
19.37	-0.073195981633	-0.259379545724
19.38	-0.073195981633	-0.258647585908
19.39	-0.073195981633	-0.257915626092
19.4	-0.073195981633	-0.257183666275
19.41	-0.073195981633	-0.256451706459
19.42	-0.073195981633	-0.255719746643
19.43	-0.0636744970252	-0.255035394249
19.44	-0.073195981633	-0.254351041856
19.45	-0.073195981633	-0.25361908204
19.46	-0.073195981633	-0.252887122223
19.47	-0.073195981633	-0.252155162407
19.48	-0.073195981633	-0.251423202591
19.49	-0.073195981633	-0.250691242774
19.5	-0.073195981633	-0.249959282958
19.51	-0.073195981633	-0.249227323142
19.52	-0.0827174662409	-0.248447755902
19.53	-0.073195981633	-0.247668188663
19.54	-0.073195981633	-0.246936228847
19.55	-0.073195981633	-0.24620426903
19.56	-0.073195981633	-0.245472309214
19.57	-0.0636744970252	-0.244787956821
19.58	-0.073195981633	-0.244103604427
19.59	-0.0636744970252	-0.243419252034
19.6	-0.073195981633	-0.242734899641
19.61	-0.073195981633	-0.242002939825
19.62	-0.0636744970252	-0.241318587431
19.63	-0.0636744970252	-0.240681842461
19.64	-0.0636744970252	-0.240045097491
19.65	-0.0636744970252	-0.239408352521
19.66	-0.0636744970252	-0.23877160755
19.67	-0.0636744970252	-0.23813486258
19.68	-0.073195981633	-0.237450510187
19.69	-0.073195981633	-0.23671855037
19.7	-0.073195981633	-0.235986590554
19.71	-0.073195981633	-0.235254630738
19.72	-0.0922389508487	-0.234427456075
19.73	-0.0636744970252	-0.233647888836
19.74	-0.0636744970252	-0.233011143866
19.75	-0.073195981633	-0.232326791472
19.76	-0.0636744970252	-0.231642439079
19.77	-0.073195981633	-0.230958086686
19.78	-0.0827174662409	-0.230178519446
19.79	-0.073195981633	-0.229398952207
19.8	-0.0636744970252	-0.228714599814
19.81	-0.0827174662409	-0.227982639997
19.82	-0.0636744970252	-0.227250680181
19.83	-0.0636744970252	-0.226613935211
19.84	-0.0636744970252	-0.225977190241
19.85	-0.0636744970252	-0.22534044527
19.86	-0.0636744970252	-0.2247037003
19.87	-0.0636744970252	-0.22406695533
19.88	-0.0636744970252	-0.22343021036
19.89	-0.0636744970252	-0.222793465389
19.9	-0.0636744970252	-0.222156720419
19.91	-0.0636744970252	-0.221519975449
19.92	-0.0636744970252	-0.220883230479
19.93	-0.0636744970252	-0.220246485508
19.94	-0.073195981633	-0.219562133115
19.95	-0.0636744970252	-0.218877780722
19.96	-0.0636744970252	-0.218241035752
19.97	-0.0636744970252	-0.217604290781
19.98	-0.073195981633	-0.216919938388
19.99	-0.0636744970252	-0.216235585995
20	-0.0636744970252	-0.215598841024
