Vernier Format 2
mario2conmiograma.qmbl 25/06/2017 20:41:50 .
Serie 1
Tiempo	Caudal	Volumen
		Vol
s	L/s	L

0	-0.061294127634	-0
0.02	-0.061294127634	0.00122588255268
0.04	-0.061294127634	0.00245176510536
0.06	-0.0517726430262	0.00358243281196
0.08	-0.0517726430262	0.00461788567249
0.1	-0.061294127634	0.00574855337909
0.12	-0.061294127634	0.00697443593177
0.14	-0.061294127634	0.00820031848445
0.16	-0.061294127634	0.00942620103713
0.18	-0.0517726430262	0.0105568687437
0.2	-0.061294127634	0.0116875364503
0.22	-0.0714107050298	0.013014584777
0.24	-0.061294127634	0.0143416331036
0.26	-0.061294127634	0.0155675156563
0.28	-0.061294127634	0.016793398209
0.3	-0.061294127634	0.0180192807616
0.32	-0.061294127634	0.0192451633143
0.34	-0.061294127634	0.020471045867
0.36	-0.0517726430262	0.0216017135736
0.38	-0.061294127634	0.0227323812802
0.4	-0.061294127634	0.0239582638329
0.42	-0.061294127634	0.0251841463856
0.44	-0.061294127634	0.0264100289383
0.46	-0.0517726430262	0.0275406966449
0.48	-0.061294127634	0.0286713643515
0.5	-0.061294127634	0.0298972469041
0.52	-0.061294127634	0.0311231294568
0.54	-0.061294127634	0.0323490120095
0.56	-0.061294127634	0.0335748945622
0.58	-0.061294127634	0.0348007771149
0.6	-0.061294127634	0.0360266596675
0.62	-0.061294127634	0.0372525422202
0.64	-0.061294127634	0.0384784247729
0.66	-0.0517726430262	0.0396090924795
0.68	-0.061294127634	0.0407397601861
0.7	-0.061294127634	0.0419656427388
0.72	-0.0517726430262	0.0430963104454
0.74	-0.061294127634	0.044226978152
0.76	-0.061294127634	0.0454528607047
0.78	-0.061294127634	0.0466787432573
0.8	-0.061294127634	0.04790462581
0.82	-0.061294127634	0.0491305083627
0.84	-0.061294127634	0.0503563909154
0.86	-0.061294127634	0.0515822734681
0.88	-0.061294127634	0.0528081560207
0.9	-0.061294127634	0.0540340385734
0.92	-0.061294127634	0.0552599211261
0.94	-0.061294127634	0.0564858036788
0.96	-0.061294127634	0.0577116862315
0.98	-0.061294127634	0.0589375687841
1	-0.061294127634	0.0601634513368
1.02	-0.0517726430262	0.0612941190434
1.04	-0.061294127634	0.06242478675
1.06	-0.0517726430262	0.0635554544566
1.08	-0.0517726430262	0.0645909073172
1.1	-0.061294127634	0.0657215750238
1.12	-0.061294127634	0.0669474575764
1.14	-0.061294127634	0.0681733401291
1.16	-0.061294127634	0.0693992226818
1.18	-0.061294127634	0.0706251052345
1.2	-0.061294127634	0.0718509877872
1.22	-0.061294127634	0.0730768703398
1.24	-0.061294127634	0.0743027528925
1.26	-0.061294127634	0.0755286354452
1.28	-0.061294127634	0.0767545179979
1.3	-0.061294127634	0.0779804005506
1.32	-0.061294127634	0.0792062831032
1.34	-0.061294127634	0.0804321656559
1.36	-0.0517726430262	0.0815628333625
1.38	-0.061294127634	0.0826935010691
1.4	-0.061294127634	0.0839193836218
1.42	-0.061294127634	0.0851452661745
1.44	-0.061294127634	0.0863711487272
1.46	-0.061294127634	0.0875970312798
1.48	-0.061294127634	0.0888229138325
1.5	-0.061294127634	0.0900487963852
1.52	-0.061294127634	0.0912746789379
1.54	-0.061294127634	0.0925005614906
1.56	-0.061294127634	0.0937264440432
1.58	-0.061294127634	0.0949523265959
1.6	-0.061294127634	0.0961782091486
1.62	-0.061294127634	0.0974040917013
1.64	-0.061294127634	0.098629974254
1.66	-0.0517726430262	0.0997606419606
1.68	-0.061294127634	0.100891309667
1.7	-0.061294127634	0.10211719222
1.72	-0.061294127634	0.103343074773
1.74	-0.0517726430262	0.104473742479
1.76	-0.0517726430262	0.10550919534
1.78	-0.061294127634	0.106639863046
1.8	-0.0714107050298	0.107966911373
1.82	-0.061294127634	0.1092939597
1.84	-0.061294127634	0.110519842252
1.86	-0.061294127634	0.111745724805
1.88	-0.061294127634	0.112971607358
1.9	-0.061294127634	0.11419748991
1.92	-0.061294127634	0.115423372463
1.94	-0.061294127634	0.116649255016
1.96	-0.061294127634	0.117875137568
1.98	-0.061294127634	0.119101020121
2	-0.061294127634	0.120326902674
2.02	-0.061294127634	0.121552785226
2.04	-0.061294127634	0.122778667779
2.06	-0.061294127634	0.124004550332
2.08	-0.061294127634	0.125230432884
2.1	-0.061294127634	0.126456315437
2.12	-0.061294127634	0.12768219799
2.14	-0.061294127634	0.128908080542
2.16	-0.061294127634	0.130133963095
2.18	-0.061294127634	0.131359845648
2.2	-0.0517726430262	0.132490513354
2.22	-0.061294127634	0.133621181061
2.24	-0.061294127634	0.134847063614
2.26	-0.0517726430262	0.13597773132
2.28	-0.0517726430262	0.137013184181
2.3	-0.0517726430262	0.138048637041
2.32	-0.061294127634	0.139179304748
2.34	-0.061294127634	0.140405187301
2.36	-0.061294127634	0.141631069853
2.38	-0.061294127634	0.142856952406
2.4	-0.061294127634	0.144082834959
2.42	-0.061294127634	0.145308717511
2.44	-0.061294127634	0.146534600064
2.46	-0.061294127634	0.147760482617
2.48	-0.0517726430262	0.148891150323
2.5	-0.061294127634	0.15002181803
2.52	-0.061294127634	0.151247700583
2.54	-0.061294127634	0.152473583135
2.56	-0.0517726430262	0.153604250842
2.58	-0.061294127634	0.154734918548
2.6	-0.061294127634	0.155960801101
2.62	-0.061294127634	0.157186683654
2.64	-0.061294127634	0.158412566206
2.66	-0.061294127634	0.159638448759
2.68	-0.0517726430262	0.160769116466
2.7	-0.0517726430262	0.161804569326
2.72	-0.0517726430262	0.162840022187
2.74	-0.0517726430262	0.163875475047
2.76	-0.0517726430262	0.164910927908
2.78	-0.061294127634	0.166041595614
2.8	-0.061294127634	0.167267478167
2.82	-0.061294127634	0.16849336072
2.84	-0.061294127634	0.169719243272
2.86	-0.061294127634	0.170945125825
2.88	-0.061294127634	0.172171008378
2.9	-0.061294127634	0.173396890931
2.92	-0.061294127634	0.174622773483
2.94	-0.0517726430262	0.17575344119
2.96	-0.061294127634	0.176884108896
2.98	-0.0517726430262	0.178014776603
3	-0.0517726430262	0.179050229464
3.02	-0.0517726430262	0.180085682324
3.04	-0.0422511584184	0.181025920339
3.06	-0.0422511584184	0.181870943507
3.08	-0.0517726430262	0.182811181521
3.1	-0.0517726430262	0.183846634382
3.12	-0.0422511584184	0.184786872396
3.14	-0.0517726430262	0.185727110411
3.16	-0.061294127634	0.186857778117
3.18	-0.061294127634	0.18808366067
3.2	-0.061294127634	0.189309543223
3.22	-0.0714107050298	0.190636591549
3.24	-0.0714107050298	0.19206480565
3.26	-0.061294127634	0.193391853977
3.28	-0.061294127634	0.194617736529
3.3	-0.061294127634	0.195843619082
3.32	-0.061294127634	0.197069501635
3.34	-0.061294127634	0.198295384187
3.36	-0.0517726430262	0.199426051894
3.38	-0.0517726430262	0.200461504754
3.4	-0.061294127634	0.201592172461
3.42	-0.061294127634	0.202818055014
3.44	-0.0517726430262	0.20394872272
3.46	-0.061294127634	0.205079390427
3.48	-0.0321345810225	0.206013677513
3.5	-0.0226130964147	0.206561154288
3.52	-0.0321345810225	0.207108631062
3.54	-0.0226130964147	0.207656107837
3.56	-0.0130916118069	0.208013154919
3.58	-0.0130916118069	0.208274987155
3.6	-0.0321345810225	0.208727249083
3.62	-0.0517726430262	0.209566321324
3.64	-0.061294127634	0.21069698903
3.66	-0.061294127634	0.211922871583
3.68	-0.0517726430262	0.21305353929
3.7	-0.0422511584184	0.213993777304
3.72	-0.0422511584184	0.214838800472
3.74	-0.061294127634	0.215874253333
3.76	-0.100570251641	0.217492897126
3.78	-0.188048891476	0.220379088557
3.8	-0.255889469307	0.224818472165
3.82	-0.266006046702	0.230037427325
3.84	-0.226729922695	0.234964787019
3.86	-0.168410829472	0.23891619454
3.88	-0.120208313645	0.241802385972
3.9	-0.149367860256	0.244498147711
3.92	-0.266006046702	0.24865188678
3.94	-0.41180377976	0.255429985045
3.96	-0.567122997425	0.265219252817
3.98	-0.712920730482	0.278019690096
4	-0.781356401101	0.292962461412
4.02	-0.829558916928	0.309071614592
4.04	-0.887878010151	0.326245983863
4.06	-0.917037556763	0.344295139532
4.08	-1.01463277399	0.363611842839
4.1	-1.05331380521	0.384291308631
4.12	-1.16043050705	0.406428751754
4.14	-1.16995199166	0.429732576741
4.16	-1.16043050705	0.453036401728
4.18	-1.18959005366	0.476536607335
4.2	-1.22827108488	0.500715218721
4.22	-1.23838766228	0.525381806192
4.24	-1.26754720889	0.550441154904
4.26	-1.24790914688	0.575595718462
4.28	-1.20922811567	0.600167091087
4.3	-1.18006856905	0.624060057934
4.32	-1.14079244505	0.647268668075
4.34	-1.16043050705	0.670280897596
4.36	-1.15090902244	0.693394292891
4.38	-1.13127096044	0.71621609272
4.4	-1.11163289844	0.738645131309
4.42	-1.12174947583	0.760978955052
4.44	-1.07295186722	0.782925968482
4.46	-1.034270836	0.803998195514
4.48	-1.034270836	0.824683612234
4.5	-0.946197103374	0.844488291628
4.52	-0.868835040936	0.862638613071
4.54	-0.732558792486	0.878652551405
4.56	-0.606399121432	0.892042130544
4.58	-0.41180377976	0.902224159556
4.6	-0.266006046702	0.909002257821
4.62	-0.217208438087	0.913834402669
4.64	-0.168410829472	0.917690595344
4.66	-0.129729798253	0.920672001622
4.68	-0.0714107050298	0.922683406655
4.7	0.0160679348046	0.923236834357
4.72	0.171982245258	0.921356332556
4.74	0.317779978315	0.91645871032
4.76	0.443939649369	0.908841514044
4.78	0.512375319988	0.89927836435
4.8	0.551056351207	0.888644047638
4.82	0.629013506434	0.876843349062
4.84	0.667694537653	0.863876268621
4.86	0.677216022261	0.850427163022
4.88	0.696854084264	0.836686461956
4.9	0.706375568872	0.822654165425
4.92	0.716492146268	0.808425488274
4.94	0.716492146268	0.794095645348
4.96	0.735535115484	0.779575372731
4.98	0.726013630876	0.764959885267
5	0.716492146268	0.750534827496
5.02	0.735535115484	0.736014554878
5.04	0.735535115484	0.721303852569
5.06	0.726013630876	0.706688365105
5.08	0.696854084264	0.692459687954
5.1	0.667694537653	0.678814201734
5.12	0.629013506434	0.665847121293
5.14	0.599853959822	0.653558446631
5.16	0.570694413211	0.641852962901
5.18	0.560577835815	0.63054024041
5.2	0.570694413211	0.61922751792
5.22	0.570694413211	0.607813629656
5.24	0.560577835815	0.596500907166
5.26	0.570694413211	0.585188184675
5.28	0.560577835815	0.573875462185
5.3	0.551056351207	0.562759120315
5.32	0.521896804596	0.552029588757
5.34	0.483215773376	0.541978462977
5.36	0.443939649369	0.53270690875
5.38	0.414780102758	0.524119711228
5.4	0.40525861815	0.515919324019
5.42	0.395737133542	0.507909366502
5.44	0.346939524927	0.500482599918
5.46	0.317779978315	0.493835404885
5.48	0.288620431704	0.487771400785
5.5	0.249344307696	0.482391753391
5.52	0.239822823089	0.477500082083
5.54	0.220184761085	0.472900006241
5.56	0.210663276477	0.468591525866
5.58	0.201141791869	0.464473475182
5.6	0.181503729866	0.460647019965
5.62	0.161865667862	0.457213325988
5.64	0.132706121251	0.454267608097
5.66	0.113663152035	0.451803915364
5.68	0.0845036054234	0.449822247789
5.7	0.0452274814161	0.448524936921
5.72	-0.0130916118069	0.448203578225
5.74	-0.0517726430262	0.448852220773
5.76	-0.0714107050298	0.450084054254
5.78	-0.0809321896377	0.4516074832
5.8	-0.100570251641	0.453422507613
5.82	-0.139251282861	0.455820722958
5.84	-0.188048891476	0.459093724701
5.86	-0.236846500091	0.463342678617
5.88	-0.285049015918	0.468561633777
5.9	-0.343368109141	0.474845805028
5.92	-0.41180377976	0.482397523917
5.94	-0.479644357591	0.49131200529
5.96	-0.51832538881	0.501291702754
5.98	-0.557601512817	0.512050971771
6	-0.567122997425	0.523298216873
6.02	-0.577239574821	0.534741842596
6.04	-0.577239574821	0.546286634092
6.06	-0.567122997425	0.557730259814
6.08	-0.577239574821	0.569173885537
6.1	-0.577239574821	0.580718677033
6.12	-0.548080028209	0.591971873064
6.14	-0.51832538881	0.602635927234
6.16	-0.499282419594	0.612812005318
6.18	-0.508803904202	0.622892868556
6.2	-0.508803904202	0.63306894664
6.22	-0.537963450814	0.64353662019
6.24	-0.548080028209	0.65439705498
6.26	-0.567122997425	0.665549085237
6.28	-0.577239574821	0.676992710959
6.3	-0.567122997425	0.688436336681
6.32	-0.537963450814	0.699487201164
6.34	-0.528441966206	0.710151255334
6.36	-0.528441966206	0.720720094658
6.38	-0.557601512817	0.731580529448
6.4	-0.596282544037	0.743119370017
6.42	-0.635558668044	0.755437782138
6.44	-0.683761183871	0.768630980657
6.46	-0.703399245875	0.782502584954
6.48	-0.723037307878	0.796766950492
6.5	-0.693877761267	0.810936101183
6.52	-0.674239699263	0.824617275789
6.54	-0.625442090648	0.837614093688
6.56	-0.606399121432	0.849932505809
6.58	-0.577239574821	0.861768892771
6.6	-0.557601512817	0.873117303647
6.62	-0.537963450814	0.884072953284
6.64	-0.51832538881	0.89463584168
6.66	-0.479644357591	0.904615539144
6.68	-0.430846748975	0.91372045021
6.7	-0.392165717756	0.921950574877
6.72	-0.363006171145	0.929502293766
6.74	-0.333846624533	0.936470821723
6.76	-0.31420856253	0.942951373593
6.78	-0.333846624533	0.949431925464
6.8	-0.382644233148	0.956596834041
6.82	-0.382644233148	0.964249718704
6.84	-0.363006171145	0.971706222747
6.86	-0.304687077922	0.978383155237
6.88	-0.246367984699	0.983893705864
6.9	-0.158889344864	0.987946279159
6.92	-0.0714107050298	0.990249279658
6.94	0.0160679348046	0.99080270736
6.96	0.113663152035	0.989505396492
6.98	0.191025214473	0.986458512827
7	0.249344307696	0.982054817605
7.02	0.298141916312	0.976579955365
7.04	0.336822947531	0.970230306727
7.06	0.395737133542	0.962904705916
7.08	0.443939649369	0.954507938087
7.1	0.502258742592	0.945045954167
7.12	0.531418289203	0.934709183849
7.14	0.551056351207	0.923884437445
7.16	0.570694413211	0.912666929801
7.18	0.570694413211	0.901253041537
7.2	0.560577835815	0.889940319047
7.22	0.551056351207	0.878823977176
7.24	0.551056351207	0.867802850152
7.26	0.541534866599	0.856876937974
7.28	0.531418289203	0.846147406416
7.3	0.531418289203	0.835519040632
7.32	0.541534866599	0.824789509074
7.34	0.551056351207	0.813863596896
7.36	0.551056351207	0.802842469872
7.38	0.541534866599	0.791916557694
7.4	0.541534866599	0.781085860362
7.42	0.531418289203	0.770356328804
7.44	0.521896804596	0.759823177866
7.46	0.521896804596	0.749385241774
7.48	0.492737257984	0.739238901148
7.5	0.483215773376	0.729479370834
7.52	0.483215773376	0.719815055367
7.54	0.483215773376	0.710150739899
7.56	0.502258742592	0.70029599474
7.58	0.521896804596	0.690054439268
7.6	0.541534866599	0.679420122556
7.62	0.541534866599	0.668589425224
7.64	0.521896804596	0.657955108512
7.66	0.531418289203	0.647421957574
7.68	0.531418289203	0.63679359179
7.7	0.521896804596	0.626260440852
7.72	0.521896804596	0.61582250476
7.74	0.512375319988	0.605479783514
7.76	0.492737257984	0.595428657734
7.78	0.47309919598	0.585770293195
7.8	0.47309919598	0.576308309275
7.82	0.47309919598	0.566846325356
7.84	0.47309919598	0.557384341436
7.86	0.47309919598	0.547922357516
7.88	0.47309919598	0.538460373597
7.9	0.454056226765	0.529188819369
7.92	0.424896680153	0.5203992903
7.94	0.414780102758	0.512002522471
7.96	0.424896680153	0.503605754642
7.98	0.414780102758	0.495208986813
8	0.395737133542	0.48710381445
8.02	0.395737133542	0.479189071779
8.04	0.376099071538	0.471470709728
8.06	0.356461009535	0.464145108918
8.08	0.327301462923	0.457307484193
8.1	0.2689823697	0.451344645867
8.12	0.220184761085	0.446452974559
8.14	0.171982245258	0.442531304495
8.16	0.123184636643	0.439579635676
8.18	0.0553440588119	0.437794348722
8.2	-0.0226130964147	0.437467039098
8.22	-0.120208313645	0.438895253199
8.24	-0.197570376084	0.442073040096
8.26	-0.266006046702	0.446708804324
8.28	-0.324325139925	0.45261211619
8.3	-0.382644233148	0.459681809921
8.32	-0.440963326371	0.467917885516
8.34	-0.499282419594	0.477320342975
8.36	-0.537963450814	0.48769280168
8.38	-0.567122997425	0.498743666162
8.4	-0.586761059429	0.510282506731
8.42	-0.635558668044	0.522505704005
8.44	-0.654601637259	0.535407307058
8.46	-0.654601637259	0.548499339803
8.48	-0.645080152652	0.561496157703
8.5	-0.645080152652	0.574397760756
8.52	-0.645080152652	0.587299363809
8.54	-0.635558668044	0.600105752016
8.56	-0.61592060604	0.612620544756
8.58	-0.606399121432	0.624843742031
8.6	-0.606399121432	0.63697172446
8.62	-0.586761059429	0.648903326268
8.64	-0.596282544037	0.660733762303
8.66	-0.606399121432	0.672760578958
8.68	-0.596282544037	0.684787395612
8.7	-0.606399121432	0.696814212267
8.72	-0.596282544037	0.708841028922
8.74	-0.586761059429	0.720671464956
8.76	-0.586761059429	0.732406686145
8.78	-0.577239574821	0.744046692488
8.8	-0.586761059429	0.75568669883
8.82	-0.577239574821	0.767326705173
8.84	-0.567122997425	0.778770330895
8.86	-0.567122997425	0.790112790844
8.88	-0.567122997425	0.801455250792
8.9	-0.567122997425	0.812797710741
8.92	-0.577239574821	0.824241336463
8.94	-0.596282544037	0.835976557652
8.96	-0.596282544037	0.847902208532
8.98	-0.586761059429	0.859732644567
9	-0.567122997425	0.871271485136
9.02	-0.537963450814	0.882322349618
9.04	-0.508803904202	0.892790023168
9.06	-0.460006295587	0.902478125166
9.08	-0.392165717756	0.910999845299
9.1	-0.295165593314	0.91787315841
9.12	-0.178527406868	0.922610088412
9.14	-0.0517726430262	0.924913088911
9.16	0.0452274814161	0.924978540527
9.18	0.0648655434197	0.923877610279
9.2	0.0452274814161	0.92277668003
9.22	0.0452274814161	0.921872130402
9.24	0.0553440588119	0.920866415
9.26	0.123184636643	0.919081128045
9.28	0.181503729866	0.91603424438
9.3	0.259460885092	0.91162459823
9.32	0.327301462923	0.90575697475
9.34	0.395737133542	0.898526588786
9.36	0.443939649369	0.890129820956
9.38	0.492737257984	0.880763051883
9.4	0.531418289203	0.870521496411
9.42	0.551056351207	0.859696750007
9.44	0.599853959822	0.848187646897
9.46	0.638534991042	0.835803757388
9.48	0.667694537653	0.822741462101
9.5	0.706375568872	0.809000761036
9.52	0.706375568872	0.794873249658
9.54	0.696854084264	0.780840953127
9.56	0.667694537653	0.767195466908
9.58	0.648056475649	0.754037956775
9.6	0.629013506434	0.741267256954
9.62	0.599853959822	0.728978582291
9.64	0.560577835815	0.717374264335
9.66	0.531418289203	0.706454303085
9.68	0.502258742592	0.696117532767
9.7	0.521896804596	0.685875977295
9.72	0.521896804596	0.675438041203
9.74	0.541534866599	0.664803724491
9.76	0.560577835815	0.653782597467
9.78	0.580215897819	0.642374660131
9.8	0.589737382426	0.630675127328
9.82	0.60937544443	0.61868399906
9.84	0.629013506434	0.606300109551
9.86	0.638534991042	0.593624624576
9.88	0.648056475649	0.580758709909
9.9	0.648056475649	0.567797580396
9.92	0.658173053045	0.55473528511
9.94	0.658173053045	0.541571824049
9.96	0.638534991042	0.528604743608
9.98	0.629013506434	0.515929258633
10	0.60937544443	0.503545369124
10.02	0.589737382426	0.491554240856
10.04	0.570694413211	0.479949922899
10.06	0.541534866599	0.468827630101
10.08	0.521896804596	0.458193313389
10.1	0.492737257984	0.448046972764
10.12	0.454056226765	0.438579037916
10.14	0.414780102758	0.429890674621
10.16	0.36657758693	0.422077097724
10.18	0.317779978315	0.415233522072
10.2	0.259460885092	0.409461113437
10.22	0.201141791869	0.404855086668
10.24	0.132706121251	0.401516607537
10.26	0.0648655434197	0.39954089089
10.28	-0.00297503441107	0.3989219858
10.3	-0.061294127634	0.39956467742
10.32	-0.0910487670335	0.401088106367
10.34	-0.120208313645	0.403200677174
10.36	-0.207686953479	0.406479629845
10.38	-0.324325139925	0.411799750779
10.4	-0.460006295587	0.419643065134
10.42	-0.606399121432	0.430307119304
10.44	-0.790877885709	0.444279889376
10.46	-0.95631368077	0.461751805041
10.48	-1.10211141383	0.482336055987
10.5	-1.2770686935	0.50612785706
10.52	-1.41334494195	0.533031993414
10.54	-1.50082358178	0.562173678652
10.56	-1.52046164378	0.592386530907
10.58	-1.60794028362	0.623670550181
10.6	-1.68530234606	0.656602976478
10.62	-1.66625937684	0.690118593707
10.64	-1.69541892345	0.72373537671
10.66	-1.67578086145	0.757447374559
10.68	-1.64662131484	0.790671396322
10.7	-1.57878073701	0.82292541684
10.72	-1.50082358178	0.853721460028
10.74	-1.44250448856	0.883154740732
10.76	-1.39370687994	0.911516854417
10.78	-1.38418539533	0.939295777169
10.8	-1.37406881794	0.966878319302
10.82	-1.39370687994	0.994556076281
10.84	-1.34490927133	1.02194223779
10.86	-1.30622824011	1.04845361291
10.88	-1.24790914688	1.07399498678
10.9	-1.22827108488	1.0987567891
10.92	-1.10211141383	1.12206061408
10.94	-1.11163289844	1.14419805721
10.96	-1.06343038261	1.16594869002
10.98	-1.0437923206	1.18702091705
11	-1.01463277399	1.20760516799
11.02	-1.0241542586	1.22799303832
11.04	-0.975951742774	1.24799409833
11.06	-0.887878010151	1.26663239586
11.08	-0.85871846354	1.2840983606
11.1	-0.839675494324	1.30108230018
11.12	-0.820037432321	1.31767942944
11.14	-0.820037432321	1.33408017809
11.16	-0.829558916928	1.35057614158
11.18	-0.820037432321	1.36707210508
11.2	-0.790877885709	1.38318125826
11.22	-0.742080277094	1.39851083988
11.24	-0.712920730482	1.41306084996
11.26	-0.703399245875	1.42722404972
11.28	-0.693877761267	1.4411968198
11.3	-0.664718214655	1.45478277955
11.32	-0.645080152652	1.46788076323
11.34	-0.645080152652	1.48078236628
11.36	-0.674239699263	1.4939755648
11.38	-0.664718214655	1.50736514394
11.4	-0.61592060604	1.52017153215
11.42	-0.577239574821	1.53210313395
11.44	-0.557601512817	1.54345154483
11.46	-0.557601512817	1.55460357509
11.48	-0.567122997425	1.56585082019
11.5	-0.586761059429	1.57738966076
11.52	-0.606399121432	1.58932126257
11.54	-0.606399121432	1.601449245
11.56	-0.61592060604	1.61367244227
11.58	-0.635558668044	1.62618723501
11.6	-0.61592060604	1.63870202775
11.62	-0.557601512817	1.65043724894
11.64	-0.489165842198	1.66090492249
11.66	-0.489165842198	1.67068823933
11.68	-0.489165842198	1.68047155618
11.7	-0.508803904202	1.69045125364
11.72	-0.528441966206	1.70082371235
11.74	-0.537963450814	1.71148776652
11.76	-0.537963450814	1.72224703553
11.78	-0.508803904202	1.73271470908
11.8	-0.489165842198	1.74269440655
11.82	-0.499282419594	1.75257888916
11.84	-0.508803904202	1.7626597524
11.86	-0.537963450814	1.77312742595
11.88	-0.577239574821	1.78427945621
11.9	-0.586761059429	1.79591946255
11.92	-0.577239574821	1.80755946889
11.94	-0.557601512817	1.81890787977
11.96	-0.567122997425	1.83015512487
11.98	-0.567122997425	1.84149758482
12	-0.577239574821	1.85294121054
12.02	-0.577239574821	1.86448600204
12.04	-0.577239574821	1.87603079354
12.06	-0.577239574821	1.88757558503
12.08	-0.596282544037	1.89931080622
12.1	-0.61592060604	1.91143283772
12.12	-0.61592060604	1.92375124984
12.14	-0.586761059429	1.9357780665
12.16	-0.548080028209	1.94712647737
12.18	-0.537963450814	1.95798691216
12.2	-0.537963450814	1.96874618118
12.22	-0.537963450814	1.9795054502
12.24	-0.537963450814	1.99026471921
12.26	-0.528441966206	2.00092877338
12.28	-0.508803904202	2.01130123209
12.3	-0.489165842198	2.02128092955
12.32	-0.460006295587	2.03077265093
12.34	-0.430846748975	2.03968118138
12.36	-0.382644233148	2.0478160912
12.38	-0.333846624533	2.05498099977
12.4	-0.31420856253	2.06146155164
12.42	-0.343368109141	2.06803731836
12.44	-0.353484686537	2.07500584632
12.46	-0.353484686537	2.08207554005
12.48	-0.31420856253	2.08875247254
12.5	-0.31420856253	2.09503664379
12.52	-0.333846624533	2.10151719566
12.54	-0.363006171145	2.10848572362
12.56	-0.343368109141	2.11554946642
12.58	-0.343368109141	2.1224168286
12.6	-0.343368109141	2.12928419079
12.62	-0.372527655752	2.13644314843
12.64	-0.392165717756	2.14409008217
12.66	-0.440963326371	2.15242137261
12.68	-0.470122872983	2.1615322346
12.7	-0.489165842198	2.17112512176
12.72	-0.479644357591	2.18081322375
12.74	-0.489165842198	2.19050132575
12.76	-0.479644357591	2.20018942775
12.78	-0.450484810979	2.20949071944
12.8	-0.392165717756	2.21791722472
12.82	-0.382644233148	2.22566532423
12.84	-0.343368109141	2.23292544765
12.86	-0.295165593314	2.23931078468
12.88	-0.266006046702	2.24492250108
12.9	-0.285049015918	2.25043305171
12.92	-0.295165593314	2.2562351978
12.94	-0.285049015918	2.26203734389
12.96	-0.27552753131	2.26764310936
12.98	-0.295165593314	2.27335004061
13	-0.27552753131	2.27905697186
13.02	-0.236846500091	2.28418071217
13.04	-0.188048891476	2.28842966608
13.06	-0.158889344864	2.29189904845
13.08	-0.149367860256	2.2949816205
13.1	-0.188048891476	2.29835578802
13.12	-0.246367984699	2.30269995678
13.14	-0.255889469307	2.30772253132
13.16	-0.255889469307	2.3128403207
13.18	-0.217208438087	2.31757129978
13.2	-0.178527406868	2.32152865823
13.22	-0.158889344864	2.32490282575
13.24	-0.168410829472	2.32817582749
13.26	-0.197570376084	2.33183563954
13.28	-0.217208438087	2.33598342769
13.3	-0.188048891476	2.34003600098
13.32	-0.217208438087	2.34408857428
13.34	-0.255889469307	2.34881955335
13.36	-0.27552753131	2.35413372336
13.38	-0.324325139925	2.36013225007
13.4	-0.343368109141	2.36680918256
13.42	-0.295165593314	2.37319451959
13.44	-0.226729922695	2.37841347475
13.46	-0.139251282861	2.3820732868
13.48	-0.0321345810225	2.38378714544
13.5	0.0160679348046	2.3839478119
13.52	0.00654645019677	2.38372166805
13.54	-0.0130916118069	2.38378711967
13.56	-0.0321345810225	2.3842393816
13.58	0.00654645019677	2.3844952629
13.6	0.0357059968082	2.38407273843
13.62	0.0845036054234	2.38287064241
13.64	0.123184636643	2.38079375999
13.66	0.132706121251	2.37823485241
13.68	0.201141791869	2.37489637328
13.7	0.230301338481	2.37058194198
13.72	0.220184761085	2.36607708098
13.74	0.210663276477	2.36176860061
13.76	0.181503729866	2.35784693054
13.78	0.171982245258	2.35431207079
13.8	0.201141791869	2.35058083042
13.82	0.230301338481	2.34626639912
13.84	0.2689823697	2.34127356204
13.86	0.317779978315	2.33540593856
13.88	0.395737133542	2.32827076744
13.9	0.443939649369	2.31987399961
13.92	0.463577711373	2.310798826
13.94	0.443939649369	2.30172365239
13.96	0.443939649369	2.29284485941
13.98	0.463577711373	2.2837696858
14	0.463577711373	2.27449813157
14.02	0.454056226765	2.26532179219
14.04	0.376099071538	2.25702023921
14.06	0.36657758693	2.24959347262
14.08	0.414780102758	2.24177989572
14.1	0.502258742592	2.23260950727
14.12	0.541534866599	2.22217157118
14.14	0.560577835815	2.21115044415
14.16	0.60937544443	2.19945091135
14.18	0.638534991042	2.186971807
14.2	0.658173053045	2.17400472656
14.22	0.677216022261	2.1606508358
14.24	0.687332599657	2.14700534958
14.26	0.677216022261	2.13335986337
14.28	0.706375568872	2.11952394745
14.3	0.774811239491	2.10471207937
14.32	0.862289879326	2.08834106818
14.34	0.911087487941	2.07060729451
14.36	0.940247034552	2.05209394928
14.38	0.94976851916	2.03319379375
14.4	0.940247034552	2.01429363821
14.42	0.930130457156	1.99558986329
14.44	0.94976851916	1.97679087353
14.46	0.900970910545	1.95828347923
14.48	0.852768394718	1.94074608618
14.5	0.784332724099	1.92437507499
14.52	0.803970786103	1.90849203989
14.54	0.803970786103	1.89241262417
14.56	0.794449301495	1.87642842329
14.58	0.784332724099	1.86064060304
14.6	0.794449301495	1.84485278278
14.62	0.794449301495	1.82896379675
14.64	0.81349227071	1.81288438103
14.66	0.803970786103	1.79670975046
14.68	0.833130332714	1.78033873927
14.7	0.852768394718	1.763479752
14.72	0.842651817322	1.74652554988
14.74	0.81349227071	1.729964109
14.76	0.794449301495	1.71388469327
14.78	0.755173177487	1.69838846849
14.8	0.696854084264	1.68386819587
14.82	0.677216022261	1.6701274948
14.84	0.648056475649	1.65687476982
14.86	0.638534991042	1.64400885516
14.88	0.60937544443	1.6315297508
14.9	0.60937544443	1.61934224191
14.92	0.629013506434	1.6069583524
14.94	0.648056475649	1.59418765258
14.96	0.667694537653	1.58103014245
14.98	0.667694537653	1.5676762517
15	0.667694537653	1.55432236094
15.02	0.677216022261	1.54087325535
15.04	0.677216022261	1.5273289349
15.06	0.677216022261	1.51378461445
15.08	0.696854084264	1.50004391339
15.1	0.74565169288	1.48561885562
15.12	0.774811239491	1.47041422629
15.14	0.81349227071	1.45453119119
15.16	0.862289879326	1.43777336969
15.18	0.862289879326	1.42052757211
15.2	0.852768394718	1.40337698937
15.22	0.842651817322	1.38642278724
15.24	0.81349227071	1.36986134636
15.26	0.784332724099	1.35388309642
15.28	0.755173177487	1.3384880374
15.3	0.706375568872	1.32387254994
15.32	0.667694537653	1.31013184887
15.34	0.667694537653	1.29677795812
15.36	0.687332599657	1.28322768675
15.38	0.735535115484	1.26899900959
15.4	0.755173177487	1.25409192666
15.42	0.735535115484	1.23918484373
15.44	0.735535115484	1.22447414142
15.46	0.74565169288	1.20966227334
15.48	0.74565169288	1.19474923948
15.5	0.74565169288	1.17983620563
15.52	0.706375568872	1.16531593301
15.54	0.687332599657	1.15137885132
15.56	0.677216022261	1.1377333651
15.58	0.677216022261	1.12418904466
15.6	0.677216022261	1.11064472421
15.62	0.696854084264	1.09690402315
15.64	0.696854084264	1.08296694146
15.66	0.726013630876	1.06873826431
15.68	0.755173177487	1.05392639623
15.7	0.764694662095	1.03872771783
15.72	0.706375568872	1.02401701552
15.74	0.629013506434	1.01066312477
15.76	0.570694413211	0.998666045573
15.78	0.551056351207	0.987448537929
15.8	0.531418289203	0.976623791525
15.82	0.551056351207	0.965799045121
15.84	0.560577835815	0.95468270325
15.86	0.570694413211	0.94336998076
15.88	0.551056351207	0.932152473116
15.9	0.521896804596	0.921422941558
15.92	0.492737257984	0.911276600932
15.94	0.483215773376	0.901517070619
15.96	0.483215773376	0.891852755151
15.98	0.521896804596	0.881801629371
16	0.551056351207	0.871072097813
16.02	0.551056351207	0.860050970789
16.04	0.521896804596	0.849321439231
16.06	0.521896804596	0.838883503139
16.08	0.512375319988	0.828540781893
16.1	0.512375319988	0.818293275494
16.12	0.521896804596	0.807950554248
16.14	0.502258742592	0.797708998776
16.16	0.463577711373	0.788050634236
16.18	0.424896680153	0.779165890321
16.2	0.36657758693	0.77125114765
16.22	0.317779978315	0.764407571998
16.24	0.278503854308	0.758444733671
16.26	0.2689823697	0.752969871431
16.28	0.239822823089	0.747881819504
16.3	0.210663276477	0.743376958508
16.32	0.201141791869	0.739258907824
16.34	0.201141791869	0.735236071987
16.36	0.191025214473	0.731314401924
16.38	0.152344183254	0.727880707946
16.4	0.0743870280276	0.725613395834
16.42	-0.0226130964147	0.725095656517
16.44	-0.110091736249	0.726422704844
16.46	-0.158889344864	0.729112515655
16.48	-0.188048891476	0.732581898019
16.5	-0.207686953479	0.736539256468
16.52	-0.207686953479	0.740692995538
16.54	-0.197570376084	0.744745568833
16.56	-0.178527406868	0.748506546663
16.58	-0.149367860256	0.751785499334
16.6	-0.120208313645	0.754481261073
16.62	-0.120208313645	0.756885427346
16.64	-0.197570376084	0.760063214243
16.66	-0.382644233148	0.765865360336
16.68	-0.645080152652	0.776142604194
16.7	-0.917037556763	0.791763781288
16.72	-1.09258992922	0.811860056148
16.74	-1.19911153827	0.834777070822
16.76	-1.25743063149	0.85934249252
16.78	-1.20922811567	0.884009079992
16.8	-1.15090902244	0.907610451373
16.82	-1.10211141383	0.930140655735
16.84	-1.10211141383	0.952182884012
16.86	-1.11163289844	0.974320327135
16.88	-1.05331380521	0.995969794171
16.9	-1.034270836	1.01684564058
16.92	-1.00511128939	1.03723946184
16.94	-0.965835165378	1.05694892638
16.96	-0.965835165378	1.07626562969
16.98	-0.917037556763	1.09509435691
17	-0.897994587547	1.11324467836
17.02	-0.849196978932	1.13071659402
17.04	-0.781356401101	1.14702212782
17.06	-0.75219685449	1.16235766038
17.08	-0.742080277094	1.17730043169
17.1	-0.742080277094	1.19214203724
17.12	-0.742080277094	1.20698364278
17.14	-0.761718339098	1.22202162894
17.16	-0.732558792486	1.23696440026
17.18	-0.75219685449	1.25181195673
17.2	-0.761718339098	1.26695110866
17.22	-0.742080277094	1.28198909482
17.24	-0.683761183871	1.29624750943
17.26	-0.596282544037	1.30904794671
17.28	-0.508803904202	1.32009881119
17.3	-0.343368109141	1.32862053133
17.32	-0.197570376084	1.33402991618
17.34	-0.0517726430262	1.33652334637
17.36	0.0553440588119	1.33648763221
17.38	0.103546574639	1.33489872588
17.4	0.132706121251	1.33253619892
17.42	0.171982245258	1.32948931525
17.44	0.239822823089	1.32537126457
17.46	0.327301462923	1.31970002171
17.48	0.376099071538	1.31266601637
17.5	0.424896680153	1.30465605885
17.52	0.443939649369	1.29596769555
17.54	0.47309919598	1.2867973071
17.56	0.47309919598	1.27733532318
17.58	0.483215773376	1.26777217349
17.6	0.492737257984	1.25801264317
17.62	0.502258742592	1.24806268317
17.64	0.521896804596	1.2378211277
17.66	0.551056351207	1.22709159614
17.68	0.560577835815	1.21597525427
17.7	0.589737382426	1.20447210209
17.72	0.629013506434	1.1922845932
17.74	0.648056475649	1.17951389338
17.76	0.677216022261	1.1662611684
17.78	0.706375568872	1.15242525249
17.8	0.726013630876	1.13810136049
17.82	0.755173177487	1.1232894924
17.84	0.774811239491	1.10798964823
17.86	0.784332724099	1.0923982086
17.88	0.794449301495	1.07661038834
17.9	0.794449301495	1.06072140231
17.92	0.794449301495	1.04483241628
17.94	0.774811239491	1.02913981087
17.96	0.755173177487	1.0138399667
17.98	0.764694662095	0.998641288308
18	0.706375568872	0.983930585998
18.02	0.677216022261	0.970094670087
18.04	0.667694537653	0.956645564488
18.06	0.658173053045	0.943386888581
18.08	0.638534991042	0.93041980814
18.1	0.638534991042	0.917649108319
18.12	0.629013506434	0.904973623344
18.14	0.60937544443	0.892589733836
18.16	0.589737382426	0.880598605567
18.18	0.570694413211	0.868994287611
18.2	0.531418289203	0.857973160586
18.22	0.512375319988	0.847535224495
18.24	0.483215773376	0.837579313561
18.26	0.434418164761	0.82840297418
18.28	0.395737133542	0.820101421197
18.3	0.356461009535	0.812579439766
18.32	0.346939524927	0.805545434421
18.34	0.307663400919	0.798999405163
18.36	0.259460885092	0.793328162303
18.38	0.210663276477	0.788626920687
18.4	0.171982245258	0.78480046547
18.42	0.123184636643	0.781848796651
18.44	0.0648655434197	0.77996829485
18.46	0.0160679348046	0.779158960068
18.48	-0.061294127634	0.779611221996
18.5	-0.226729922695	0.782491462499
18.52	-0.528441966206	0.790043181388
18.54	-0.761718339098	0.802944784441
18.56	-0.927154134159	0.819833509174
18.58	-0.994994711989	0.839054997635
18.6	-1.07295186722	0.859734463427
18.62	-1.06343038261	0.881098285926
18.64	-1.05331380521	0.902265727804
18.66	-1.00511128939	0.92284997875
18.68	-0.965835165378	0.942559443298
18.7	-0.946197103374	0.961679765985
18.72	-0.946197103374	0.980603708053
18.74	-0.985473227382	0.99992041136
18.76	-1.034270836	1.02011785199
18.78	-1.0437923206	1.04089848356
18.8	-1.034270836	1.06167911513
18.82	-1.00511128939	1.08207293638
18.84	-0.95631368077	1.10168718608
18.86	-0.936675618766	1.12061707908
18.88	-0.878356525543	1.13876740052
18.9	-0.839675494324	1.15594772072
18.92	-0.781356401101	1.17215803967
18.94	-0.732558792486	1.18729719161
18.96	-0.693877761267	1.20156155715
18.98	-0.654601637259	1.21504635113
19	-0.635558668044	1.22794795418
19.02	-0.586761059429	1.24017115146
19.04	-0.537963450814	1.25141839656
19.06	-0.51832538881	1.26198128496
19.08	-0.508803904202	1.27225257789
19.1	-0.548080028209	1.28282141721
19.12	-0.61592060604	1.29446142355
19.14	-0.654601637259	1.30716664599
19.16	-0.654601637259	1.32025867873
19.18	-0.635558668044	1.33316028179
19.2	-0.586761059429	1.34538347906
19.22	-0.528441966206	1.35653550932
19.24	-0.450484810979	1.36632477709
19.26	-0.343368109141	1.37426330629
19.28	-0.304687077922	1.38074385816
19.3	-0.295165593314	1.38674238487
19.32	-0.353484686537	1.39322888767
19.34	-0.450484810979	1.40126858265
19.36	-0.528441966206	1.41105785042
19.38	-0.537963450814	1.42172190459
19.4	-0.489165842198	1.43199319752
19.42	-0.372527655752	1.4406101325
19.44	-0.217208438087	1.44650749344
19.46	-0.110091736249	1.44978049518
19.48	-0.100570251641	1.45188711506
19.5	-0.139251282861	1.4542853304
19.52	-0.255889469307	1.45823673793
19.54	-0.372527655752	1.46452090918
19.56	-0.401687202364	1.47226305776
19.58	-0.382644233148	1.48010637211
19.6	-0.324325139925	1.48717606584
19.62	-0.255889469307	1.49297821194
19.64	-0.197570376084	1.49751281039
19.66	-0.120208313645	1.50069059729
19.68	-0.0226130964147	1.50211881139
19.7	0.0940250900312	1.50140469145
19.72	0.210663276477	1.49835780779
19.74	0.307663400919	1.49317454101
19.76	0.395737133542	1.48614053567
19.78	0.531418289203	1.47686898144
19.8	0.677216022261	1.46478263833
19.82	0.900970910545	1.449000769
19.84	1.13424728344	1.42864858706
19.86	1.32884262511	1.40401768797
19.88	1.46511887356	1.37607807299
19.9	1.5722355754	1.3457045285
19.92	1.65971421523	1.31338503059
19.94	1.65019273062	1.28028596113
19.96	1.65019273062	1.24728210652
19.98	1.65019273062	1.21427825191
20	1.63055466862	1.18147077791
Vernier Format 2
mario2conmiograma.qmbl 25/06/2017 20:41:50 .
Serie 2
Tiempo	Caudal	Volumen
		Vol
s	L/s	L

0	-0.0714107050298	-0
0.02	-0.0517726430262	0.00123183348056
0.04	-0.0517726430262	0.00226728634108
0.06	-0.061294127634	0.00339795404769
0.08	-0.061294127634	0.00462383660037
0.1	-0.0517726430262	0.00575450430697
0.12	-0.0517726430262	0.00678995716749
0.14	-0.0517726430262	0.00782541002802
0.16	-0.0422511584184	0.00876564804246
0.18	-0.0517726430262	0.00970588605691
0.2	-0.0517726430262	0.0107413389174
0.22	-0.0517726430262	0.011776791778
0.24	-0.061294127634	0.0129074594846
0.26	-0.0422511584184	0.0139429123451
0.28	-0.061294127634	0.0149783652056
0.3	-0.0422511584184	0.0160138180661
0.32	-0.0517726430262	0.0169540560806
0.34	-0.0517726430262	0.0179895089411
0.36	-0.0517726430262	0.0190249618016
0.38	-0.0517726430262	0.0200604146621
0.4	-0.0517726430262	0.0210958675227
0.42	-0.0517726430262	0.0221313203832
0.44	-0.0517726430262	0.0231667732437
0.46	-0.0517726430262	0.0242022261042
0.48	-0.0517726430262	0.0252376789648
0.5	-0.0517726430262	0.0262731318253
0.52	-0.061294127634	0.0274037995319
0.54	-0.0517726430262	0.0285344672385
0.56	-0.0517726430262	0.029569920099
0.58	-0.0517726430262	0.0306053729595
0.6	-0.0422511584184	0.031545610974
0.62	-0.0422511584184	0.0323906341424
0.64	-0.0517726430262	0.0333308721568
0.66	-0.0422511584184	0.0342711101713
0.68	-0.0517726430262	0.0352113481857
0.7	-0.061294127634	0.0363420158923
0.72	-0.061294127634	0.037567898445
0.74	-0.061294127634	0.0387937809977
0.76	-0.061294127634	0.0400196635503
0.78	-0.0517726430262	0.0411503312569
0.8	-0.0517726430262	0.0421857841175
0.82	-0.061294127634	0.0433164518241
0.84	-0.061294127634	0.0445423343767
0.86	-0.0517726430262	0.0456730020833
0.88	-0.061294127634	0.04680366979
0.9	-0.061294127634	0.0480295523426
0.92	-0.061294127634	0.0492554348953
0.94	-0.061294127634	0.050481317448
0.96	-0.0422511584184	0.0515167703085
0.98	-0.0517726430262	0.052457008323
1	-0.0517726430262	0.0534924611835
1.02	-0.0517726430262	0.054527914044
1.04	-0.061294127634	0.0556585817506
1.06	-0.0517726430262	0.0567892494572
1.08	-0.0422511584184	0.0577294874717
1.1	-0.0517726430262	0.0586697254861
1.12	-0.0517726430262	0.0597051783466
1.14	-0.0517726430262	0.0607406312072
1.16	-0.0422511584184	0.0616808692216
1.18	-0.0517726430262	0.062621107236
1.2	-0.061294127634	0.0637517749426
1.22	-0.0422511584184	0.0647872278032
1.24	-0.0517726430262	0.0657274658176
1.26	-0.0517726430262	0.0667629186781
1.28	-0.0517726430262	0.0677983715387
1.3	-0.061294127634	0.0689290392453
1.32	-0.061294127634	0.0701549217979
1.34	-0.061294127634	0.0713808043506
1.36	-0.0517726430262	0.0725114720572
1.38	-0.0422511584184	0.0734517100717
1.4	-0.0517726430262	0.0743919480861
1.42	-0.0422511584184	0.0753321861006
1.44	-0.0422511584184	0.0761772092689
1.46	-0.0517726430262	0.0771174472834
1.48	-0.0517726430262	0.0781529001439
1.5	-0.061294127634	0.0792835678505
1.52	-0.061294127634	0.0805094504032
1.54	-0.061294127634	0.0817353329559
1.56	-0.0517726430262	0.0828660006625
1.58	-0.0517726430262	0.083901453523
1.6	-0.0517726430262	0.0849369063835
1.62	-0.0517726430262	0.085972359244
1.64	-0.0517726430262	0.0870078121046
1.66	-0.061294127634	0.0881384798112
1.68	-0.0517726430262	0.0892691475178
1.7	-0.061294127634	0.0903998152244
1.72	-0.061294127634	0.0916256977771
1.74	-0.061294127634	0.0928515803297
1.76	-0.0517726430262	0.0939822480363
1.78	-0.0517726430262	0.0950177008969
1.8	-0.0517726430262	0.0960531537574
1.82	-0.061294127634	0.097183821464
1.84	-0.061294127634	0.0984097040167
1.86	-0.0517726430262	0.0995403717233
1.88	-0.0422511584184	0.100480609738
1.9	-0.0517726430262	0.101420847752
1.92	-0.0422511584184	0.102361085767
1.94	-0.0517726430262	0.103301323781
1.96	-0.0517726430262	0.104336776642
1.98	-0.0517726430262	0.105372229502
2	-0.0517726430262	0.106407682363
2.02	-0.0517726430262	0.107443135223
2.04	-0.0517726430262	0.108478588084
2.06	-0.0517726430262	0.109514040944
2.08	-0.0517726430262	0.110549493805
2.1	-0.061294127634	0.111680161511
2.12	-0.0517726430262	0.112810829218
2.14	-0.0517726430262	0.113846282078
2.16	-0.0517726430262	0.114881734939
2.18	-0.0517726430262	0.115917187799
2.2	-0.0517726430262	0.11695264066
2.22	-0.0517726430262	0.117988093521
2.24	-0.0517726430262	0.119023546381
2.26	-0.0422511584184	0.119963784396
2.28	-0.0422511584184	0.120808807564
2.3	-0.0422511584184	0.121653830732
2.32	-0.0517726430262	0.122594068747
2.34	-0.0517726430262	0.123629521607
2.36	-0.0517726430262	0.124664974468
2.38	-0.0517726430262	0.125700427328
2.4	-0.0517726430262	0.126735880189
2.42	-0.061294127634	0.127866547895
2.44	-0.061294127634	0.129092430448
2.46	-0.061294127634	0.130318313001
2.48	-0.061294127634	0.131544195553
2.5	-0.061294127634	0.132770078106
2.52	-0.0714107050298	0.134097126433
2.54	-0.0517726430262	0.135328959913
2.56	-0.061294127634	0.13645962762
2.58	-0.0517726430262	0.137590295327
2.6	-0.0517726430262	0.138625748187
2.62	-0.0517726430262	0.139661201048
2.64	-0.0517726430262	0.140696653908
2.66	-0.0517726430262	0.141732106769
2.68	-0.0517726430262	0.142767559629
2.7	-0.0517726430262	0.14380301249
2.72	-0.0517726430262	0.14483846535
2.74	-0.0517726430262	0.145873918211
2.76	-0.0517726430262	0.146909371071
2.78	-0.061294127634	0.148040038778
2.8	-0.0517726430262	0.149170706484
2.82	-0.061294127634	0.150301374191
2.84	-0.0517726430262	0.151432041898
2.86	-0.061294127634	0.152562709604
2.88	-0.061294127634	0.153788592157
2.9	-0.0714107050298	0.155115640484
2.92	-0.061294127634	0.15644268881
2.94	-0.061294127634	0.157668571363
2.96	-0.0517726430262	0.158799239069
2.98	-0.061294127634	0.159929906776
3	-0.0422511584184	0.160965359637
3.02	-0.0517726430262	0.161905597651
3.04	-0.0517726430262	0.162941050512
3.06	-0.0422511584184	0.163881288526
3.08	-0.0517726430262	0.16482152654
3.1	-0.0517726430262	0.165856979401
3.12	-0.061294127634	0.166987647108
3.14	-0.0517726430262	0.168118314814
3.16	-0.061294127634	0.169248982521
3.18	-0.061294127634	0.170474865073
3.2	-0.0517726430262	0.17160553278
3.22	-0.061294127634	0.172736200487
3.24	-0.0517726430262	0.173866868193
3.26	-0.0422511584184	0.174807106208
3.28	-0.0517726430262	0.175747344222
3.3	-0.0517726430262	0.176782797083
3.32	-0.0422511584184	0.177723035097
3.34	-0.061294127634	0.178758487958
3.36	-0.0422511584184	0.179793940818
3.38	-0.0517726430262	0.180734178833
3.4	-0.0517726430262	0.181769631693
3.42	-0.061294127634	0.1829002994
3.44	-0.061294127634	0.184126181952
3.46	-0.0517726430262	0.185256849659
3.48	-0.0517726430262	0.18629230252
3.5	-0.0517726430262	0.18732775538
3.52	-0.0517726430262	0.188363208241
3.54	-0.0422511584184	0.189303446255
3.56	-0.0517726430262	0.19024368427
3.58	-0.0517726430262	0.19127913713
3.6	-0.0517726430262	0.192314589991
3.62	-0.0517726430262	0.193350042851
3.64	-0.0517726430262	0.194385495712
3.66	-0.0517726430262	0.195420948572
3.68	-0.0517726430262	0.196456401433
3.7	-0.061294127634	0.197587069139
3.72	-0.061294127634	0.198812951692
3.74	-0.0422511584184	0.199848404552
3.76	-0.0517726430262	0.200788642567
3.78	-0.0517726430262	0.201824095427
3.8	-0.0422511584184	0.202764333442
3.82	-0.0422511584184	0.20360935661
3.84	-0.061294127634	0.204644809471
3.86	-0.0517726430262	0.205775477177
3.88	-0.061294127634	0.206906144884
3.9	-0.061294127634	0.208132027437
3.92	-0.0517726430262	0.209262695143
3.94	-0.0517726430262	0.210298148004
3.96	-0.0517726430262	0.211333600864
3.98	-0.0517726430262	0.212369053725
4	-0.0517726430262	0.213404506585
4.02	-0.0517726430262	0.214439959446
4.04	-0.061294127634	0.215570627152
4.06	-0.0517726430262	0.216701294859
4.08	-0.0517726430262	0.21773674772
4.1	-0.0422511584184	0.218676985734
4.12	-0.0517726430262	0.219617223748
4.14	-0.0517726430262	0.220652676609
4.16	-0.0422511584184	0.221592914623
4.18	-0.0517726430262	0.222533152638
4.2	-0.0517726430262	0.223568605498
4.22	-0.0517726430262	0.224604058359
4.24	-0.0517726430262	0.225639511219
4.26	-0.0517726430262	0.22667496408
4.28	-0.0517726430262	0.227710416941
4.3	-0.0517726430262	0.228745869801
4.32	-0.0517726430262	0.229781322662
4.34	-0.0517726430262	0.230816775522
4.36	-0.0517726430262	0.231852228383
4.38	-0.061294127634	0.232982896089
4.4	-0.0517726430262	0.234113563796
Vernier Format 2
mario2conmiograma.qmbl 25/06/2017 20:41:50 .
Serie 3
Tiempo	Caudal	Volumen
		Vol
s	L/s	L

0	-0.606399121432	-0
0.02	-0.557601512817	0.0116400063425
0.04	-0.460006295587	0.0218160844265
0.06	-0.285049015918	0.0292666375416
0.08	-0.120208313645	0.0333192108372
0.1	0.0357059968082	0.0341642340056
0.12	0.171982245258	0.0320873515849
0.14	0.230301338481	0.0280645157475
0.16	0.239822823089	0.0233632741318
0.18	0.210663276477	0.0188584131362
0.2	0.181503729866	0.0149367430727
0.22	0.142822698646	0.0116934787876
0.24	0.103546574639	0.00922978605477
0.26	0.0743870280276	0.0074504500281
0.28	0.0743870280276	0.00596270946755
0.3	0.0357059968082	0.00486177921919
0.32	-0.0130916118069	0.00463563536918
0.34	0.0845036054234	0.00392151543301
0.36	0.0845036054234	0.00223144332454
0.38	-0.0321345810225	0.00170775308054
0.4	-0.110091736249	0.00313001625325
0.42	-0.120208313645	0.00543301675219
0.44	-0.0910487670335	0.00754558755898
0.46	-0.139251282861	0.00984858805792
0.48	-0.226729922695	0.0135084001135
0.5	-0.333846624533	0.0191141655858
0.52	-0.440963326371	0.0268622650948
0.54	-0.460006295587	0.0358719613144
0.56	-0.548080028209	0.0459528245523
0.58	-0.712920730482	0.0585628321392
0.6	-0.965835165378	0.0753503910978
0.62	-1.33538778672	0.0983626206188
0.64	-1.69541892345	0.128670687721
0.66	-1.93821678095	0.165007044765
0.68	-2.23992882446	0.206788500819
0.7	-2.35656701091	0.252753459172
0.72	-2.38572655752	0.300176394857
0.74	-2.36608849552	0.347694545387
0.76	-2.42440758874	0.39559950623
0.78	-2.48272668196	0.444670848937
0.8	-2.58032189919	0.495301334748
0.82	-2.6094814458	0.547199368198
0.84	-2.67732202364	0.600067402892
0.86	-2.65768396163	0.653417462745
0.88	-2.68743860103	0.706868688372
0.9	-2.58032189919	0.759546293374
0.92	-2.56068383719	0.810956350738
0.94	-2.58032189919	0.862366408102
0.96	-2.61900293041	0.914359656398
0.98	-2.53152429058	0.965864928607
1	-2.53152429058	1.01649541442
1.02	-2.3470455263	1.06528111259
1.04	-2.25956688647	1.11134723672
1.06	-2.20065270046	1.15594943258
1.08	-2.06497154479	1.19860567504
1.1	-2.01617393618	1.23941712985
1.12	-1.94833335835	1.27906220279
1.14	-1.75373801668	1.31608291654
1.16	-1.51034506639	1.34872374737
1.18	-1.34490927133	1.37727629075
1.2	-1.11163289844	1.40184171245
1.22	-0.839675494324	1.42135479638
1.24	-0.499282419594	1.43474437552
1.26	-0.188048891476	1.44161768863
1.28	-0.100570251641	1.44450388006
1.3	0.0160679348046	1.44534890323
1.32	0.113663152035	1.44405159236
1.34	0.230301338481	1.44061194745
1.36	0.356461009535	1.43474432397
1.38	0.327301462923	1.42790669925
1.4	0.346939524927	1.42116428937
1.42	0.395737133542	1.41373752278
1.44	0.531418289203	1.40446596856
1.46	0.706375568872	1.39208802998
1.48	0.881927941329	1.37620499487
1.5	1.01760909699	1.35720962449
1.52	1.0467686436	1.33656584708
1.54	1.06640670561	1.31543409359
1.56	1.13424728344	1.2934275537
1.58	1.21220443866	1.26996303648
1.6	1.20268295406	1.24581416255
1.62	1.17352340744	1.22205209894
1.64	1.13424728344	1.19897439203
1.66	1.10508773683	1.17658104183
1.68	1.08604476761	1.15466971678
1.7	1.12472579883	1.13256201112
1.72	1.10508773683	1.11026387576
1.74	1.09556625222	1.08825733587
1.76	1.10508773683	1.06625079598
1.78	1.14436386083	1.04375628
1.8	1.13424728344	1.02097016856
1.82	1.13424728344	0.998285222893
1.84	1.14436386083	0.97549911145
1.86	1.13424728344	0.952713000007
1.88	1.12472579883	0.930123269185
1.9	1.056885221	0.908307158986
1.92	1.01760909699	0.887562215806
1.94	1.00808761238	0.867305248713
1.96	1.01760909699	0.847048281619
1.98	1.0467686436	0.826404504213
2	0.998566127775	0.805951156499
2.02	0.94976851916	0.78646781003
2.04	0.871811363933	0.768252011199
2.06	0.794449301495	0.751589404545
2.08	0.764694662095	0.735997964909
2.1	0.794449301495	0.720406525273
2.12	0.852768394718	0.703934348311
2.14	0.842651817322	0.68698014619
2.16	0.755173177487	0.671001896242
2.18	0.755173177487	0.655898432693
2.2	0.74565169288	0.640890183989
2.22	0.755173177487	0.625881935285
2.24	0.81349227071	0.610195280803
2.26	0.842651817322	0.593633839923
2.28	0.74565169288	0.577750804821
2.3	0.677216022261	0.56352212767
2.32	0.658173053045	0.550168236917
2.34	0.706375568872	0.536522750697
2.36	0.726013630876	0.5221988587
2.38	0.638534991042	0.508553372481
2.4	0.589737382426	0.496270648746
2.42	0.580215897819	0.484571115944
2.44	0.541534866599	0.473353608299
2.46	0.502258742592	0.462915672207
2.48	0.443939649369	0.453453688288
2.5	0.356461009535	0.445449681699
2.52	0.288620431704	0.438998867286
2.54	0.220184761085	0.433910815359
2.56	0.220184761085	0.429507120137
2.58	0.239822823089	0.424907044295
2.6	0.2689823697	0.419818992367
2.62	0.2689823697	0.414439344973
2.64	0.249344307696	0.409256078199
2.66	0.220184761085	0.404560787511
2.68	0.171982245258	0.400639117448
2.7	0.0845036054234	0.398074258941
2.72	-0.0422511584184	0.397651734471
2.74	-0.0422511584184	0.39849675764
2.76	-0.207686953479	0.400996138758
2.78	-0.51832538881	0.408256262181
2.8	-0.732558792486	0.420765103994
2.82	-0.965835165378	0.437749043573
2.84	-1.13127096044	0.458720104831
2.86	-1.30622824011	0.483095096837
2.88	-1.46214255056	0.510778804743
2.9	-1.57878073701	0.541188037619
2.92	-1.60794028362	0.573055247825
2.94	-1.75373801668	0.606672030828
2.96	-1.8120571099	0.642329982094
2.98	-1.85073814112	0.678957934604
3	-1.8120571099	0.715585887115
3.02	-1.8019405325	0.751725863539
3.04	-1.87037620312	0.788449030895
3.06	-1.92869529634	0.826439745889
3.08	-1.99653587418	0.865692057595
3.1	-1.93821678095	0.905039584146
3.12	-1.96737632756	0.944095515231
3.14	-1.89953574973	0.982764636004
3.16	-1.8316951719	1.02007694522
3.18	-1.78289756329	1.05622287257
3.2	-1.77278098589	1.09177965806
3.22	-1.71446189267	1.12665208685
3.24	-1.69541892345	1.16075089501
3.26	-1.70494040806	1.19475448833
3.28	-1.68530234606	1.22865691587
3.3	-1.74362143928	1.26294615372
3.32	-1.73409995467	1.29772336766
3.34	-1.69541892345	1.33201855644
3.36	-1.66625937684	1.36563533944
3.38	-1.559142675	1.39788935996
3.4	-1.42286642655	1.42770945098
3.42	-1.2967067555	1.4549051828
3.44	-1.26754720889	1.48054772244
3.46	-1.23838766228	1.50560707115
3.48	-1.22827108488	1.53027365863
3.5	-1.23838766228	1.5549402461
3.52	-1.19911153827	1.5793152381
3.54	-1.18959005366	1.60320225402
3.56	-1.15090902244	1.62660724478
3.58	-1.11163289844	1.64923266399
3.6	-1.08247335182	1.67117372649
3.62	-1.06343038261	1.69263276384
3.64	-0.975951742774	1.71302658509
3.66	-0.839675494324	1.73118285746
3.68	-0.654601637259	1.74612562878
3.7	-0.41180377976	1.75678968295
3.72	-0.0714107050298	1.7616218278
3.74	0.142822698646	1.76090770786
3.76	0.36657758693	1.75581370501
3.78	0.376099071538	1.74838693842
3.8	0.336822947531	1.74125771823
3.82	0.395737133542	1.73393211742
3.84	0.502258742592	1.72495215866
3.86	0.706375568872	1.71286581554
3.88	0.930130457156	1.69650075528
3.9	1.17352340744	1.67546421664
3.92	1.38716171833	1.64985736538
3.94	1.53295945139	1.62065615368
3.96	1.66923569984	1.58863420217
3.98	1.72755479306	1.55466629724
4	1.68887376184	1.52050201169
4.02	1.65019273062	1.48711134677
4.04	1.65019273062	1.45410749215
4.06	1.61091660662	1.42149639878
4.08	1.52343796678	1.39015285305
4.1	1.45559738895	1.36036249949
4.12	1.34848068711	1.33232171873
4.14	1.32884262511	1.30554848561
4.16	1.29016159389	1.27935844342
4.18	1.33895920251	1.25306723545
4.2	1.3193211405	1.22648443202
4.22	1.29016159389	1.20038960468
4.24	1.21220443866	1.17536594435
4.26	1.15388534544	1.15170504651
4.28	1.15388534544	1.12862733961
4.3	1.12472579883	1.10584122816
4.32	1.07592819021	1.08383468827
4.34	1.056885221	1.06250655416
4.36	1.0467686436	1.04147001551
4.38	0.998566127775	1.0210166678
4.4	0.94976851916	1.00153332133
4.42	0.930130457156	0.982734331568
4.44	0.911087487941	0.964322152117
4.46	0.755173177487	0.947659545462
4.48	0.755173177487	0.932556081913
4.5	0.755173177487	0.917452618363
4.52	0.755173177487	0.902349154813
4.54	0.774811239491	0.887049310643
4.56	0.755173177487	0.871749466474
4.58	0.755173177487	0.856646002924
4.6	0.755173177487	0.841542539374
4.62	0.755173177487	0.826439075824
4.64	0.784332724099	0.811044016809
4.66	0.823608848106	0.794964601087
4.68	0.74565169288	0.779271995677
4.7	0.677216022261	0.765043318525
4.72	0.618896929038	0.752082189012
4.74	0.580215897819	0.740091060744
4.76	0.589737382426	0.728391527941
4.78	0.521896804596	0.717275186071
4.8	0.454056226765	0.707515655757
4.82	0.395737133542	0.699017722154
4.84	0.327301462923	0.69178733619
4.86	0.259460885092	0.68591971271
4.88	0.152344183254	0.681801662026
4.9	-0.0130916118069	0.680409136312
4.92	-0.139251282861	0.681932565258
4.94	-0.27552753131	0.6860803534
4.96	-0.353484686537	0.692370475578
4.98	-0.41180377976	0.700023360241
5	-0.537963450814	0.709521032547
5.02	-0.683761183871	0.721738278894
5.04	-0.829558916928	0.736871479902
5.06	-0.927154134159	0.754438610413
5.08	-1.0241542586	0.77395169434
5.1	-1.12174947583	0.795410731685
5.12	-1.034270836	0.816970934803
5.14	-0.985473227382	0.837168375437
5.16	-1.05331380521	0.857556245763
5.18	-1.05331380521	0.878622521867
5.2	-1.11163289844	0.900271988904
5.22	-1.10211141383	0.922409432026
5.24	-1.13127096044	0.944743255769
5.26	-1.16995199166	0.96775548529
5.28	-1.18959005366	0.991350905743
5.3	-1.19911153827	1.01523792166
5.32	-1.21874960027	1.03941653305
5.34	-1.24790914688	1.06408312052
5.36	-1.2770686935	1.08933289892
5.38	-1.2770686935	1.11487427279
5.4	-1.26754720889	1.14032043182
5.42	-1.23838766228	1.16537978053
5.44	-1.30622824011	1.19082593955
5.46	-1.38418539533	1.21773007591
5.48	-1.50082358178	1.24658016568
5.5	-1.51034506639	1.27669185216
5.52	-1.5496211904	1.30729151473
5.54	-1.57878073701	1.338575534
5.56	-1.5496211904	1.36985955328
5.58	-1.50082358178	1.400364001
5.6	-1.33538778672	1.42872611468
5.62	-1.31574972472	1.4552374898
5.64	-1.30622824011	1.48145726945
5.66	-1.23838766228	1.50690342847
5.68	-1.2967067555	1.53225437265
5.7	-1.32586630211	1.55848010322
5.72	-1.2770686935	1.58450945318
5.74	-1.15090902244	1.60878923034
5.76	-0.897994587547	1.62927826644
5.78	-0.567122997425	1.64392944229
5.8	-0.255889469307	1.65215956696
5.82	-0.110091736249	1.65581937901
5.84	-0.0130916118069	1.65705121249
5.86	-0.0130916118069	1.65731304473
5.88	-0.110091736249	1.65854487821
5.9	-0.100570251641	1.66065149809
5.92	-0.0226130964147	1.66188333157
5.94	0.0357059968082	1.66175240256
5.96	0.0553440588119	1.66084190201
5.98	0.0940250900312	1.65934821052
6	0.220184761085	1.65620611201
6.02	0.336822947531	1.65063603492
6.04	0.346939524927	1.6437984102
6.06	0.463577711373	1.63569323783
6.08	0.60937544443	1.62496370628
6.1	0.599853959822	1.61287141223
6.12	0.658173053045	1.60029114211
6.14	0.589737382426	1.58781203775
6.16	0.531418289203	1.57660048103
6.18	0.463577711373	1.56665052103
6.2	0.463577711373	1.5573789668
6.22	0.521896804596	1.54752422164
6.24	0.551056351207	1.53679469008
6.26	0.560577835815	1.52567834821
6.28	0.560577835815	1.5144667915
6.3	0.60937544443	1.50276725869
6.32	0.755173177487	1.48912177248
6.34	0.940247034552	1.47216757035
6.36	1.13424728344	1.45142262717
6.38	1.2996830785	1.42708332356
6.4	1.41632126494	1.39992328012
6.42	1.51391648217	1.37062090265
6.44	1.64007615323	1.3390809763
6.46	1.65971421523	1.30608307261
6.48	1.5722355754	1.27376357471
6.5	1.45559738895	1.24348524506
6.52	1.36811874912	1.21524808368
6.54	1.36811874912	1.1878857087
6.56	1.32884262511	1.16091609496
6.58	1.23184250067	1.1353092437
6.6	1.15388534544	1.11145196524
6.62	1.056885221	1.08934425957
6.64	1.07592819021	1.06801612546
6.66	1.09556625222	1.04630118104
6.68	1.14436386083	1.02390187991
6.7	1.12472579883	1.00121098331
6.72	1.12472579883	0.978716467333
6.74	1.10508773683	0.956418331976
6.76	1.15388534544	0.933828601153
6.78	1.23184250067	0.909971322692
6.8	1.20268295406	0.885626068145
6.82	1.13424728344	0.86225676577
6.84	1.11520431422	0.839762249793
6.86	1.13424728344	0.817267733817
6.88	1.17352340744	0.794190026908
6.9	1.17352340744	0.770719558759
6.92	1.10508773683	0.747933447317
6.94	1.02772567439	0.726605313204
6.96	0.920608972549	0.707121966735
6.98	0.852768394718	0.689388193062
7	0.911087487941	0.671749634236
7.02	0.940247034552	0.653236289011
7.04	0.862289879326	0.635210919872
7.06	0.774811239491	0.618839908684
7.08	0.667694537653	0.604414850912
7.1	0.638534991042	0.591352555625
7.12	0.629013506434	0.578677070651
7.14	0.60937544443	0.566293181142
7.16	0.629013506434	0.553909291633
7.18	0.580215897819	0.541816997591
7.2	0.541534866599	0.530599489947
7.22	0.502258742592	0.520161553855
7.24	0.492737257984	0.510211593849
7.26	0.483215773376	0.500452063535
7.28	0.483215773376	0.490787748068
7.3	0.463577711373	0.48131981322
7.32	0.454056226765	0.472143473839
7.34	0.434418164761	0.463258729924
7.36	0.36657758693	0.455248772407
7.38	0.327301462923	0.448309981908
7.4	0.336822947531	0.441668737804
7.42	0.346939524927	0.434831113079
7.44	0.317779978315	0.428183918047
7.46	0.171982245258	0.423286295811
7.48	0.230301338481	0.419263459974
7.5	0.191025214473	0.415050194444
7.52	-0.100570251641	0.414145644816
7.54	-0.499282419594	0.420144171528
7.56	-1.0241542586	0.43537853831
7.58	-1.44250448856	0.460045125782
7.6	-2.11317406062	0.495601911273
7.62	-2.61900293041	0.542923681184
7.64	-2.89155542731	0.598029264761
7.66	-3.18315089343	0.658776327968
7.68	-3.27062953326	0.723314132235
7.7	-3.29026759526	0.78892310352
7.72	-3.29026759526	0.854728455426
7.74	-3.15399134682	0.919171044846
7.76	-2.99807703636	0.980691728678
7.78	-3.22183192465	1.04289081829
7.8	-3.29026759526	1.10801181349
7.82	-3.43606532832	1.17527514272
7.84	-3.70802273243	1.24671602333
7.86	-3.90261807411	1.3228224314
7.88	-4.18469205561	1.40369553269
7.9	-4.10673490039	1.48660980225
7.92	-4.45724455251	1.57224959678
7.94	-4.54472319235	1.66226927423
7.96	-4.45724455251	1.75228895168
7.98	-4.3983303665	1.84084470087
8	-4.27217069545	1.92754971149
8.02	-4.07757535377	2.01104717198
8.04	-3.85382046549	2.09036113017
8.06	-3.83477749627	2.16724710979
8.08	-3.93177762072	2.24491266096
8.1	-3.73718227904	2.32160225996
8.12	-3.53306545276	2.39430473728
8.14	-3.46522487493	2.46428764055
8.16	-3.29026759526	2.53184256526
8.18	-2.90107691192	2.59375601033
8.2	-2.62852441502	2.6490520236
8.22	-2.59936486841	2.70133091643
8.24	-2.48272668196	2.75215183194
8.26	-2.16197166924	2.79859881545
8.28	-1.90905723434	2.83930910448
8.3	-1.63709983023	2.87477067513
8.32	-1.32586630211	2.90440033645
8.34	-1.034270836	2.92800170783
8.36	-0.790877885709	2.94625319505
8.38	-0.761718339098	2.9617791573
8.4	-0.577239574821	2.97516873644
8.42	-0.304687077922	2.98398800296
8.44	-0.226729922695	2.98930217297
8.46	-0.255889469307	2.99412836689
8.48	-0.353484686537	3.00022210845
8.5	-0.31420856253	3.00689904094
8.52	-0.27552753131	3.01279640188
8.54	-0.226729922695	3.01781897642
8.56	-0.158889344864	3.02167516909
8.58	-0.120208313645	3.02446614568
8.6	-0.0714107050298	3.02638233587
8.62	-0.0130916118069	3.02722735903
8.64	0.0160679348046	3.0271975958
8.66	0.0261845122004	3.02677507133
8.68	0.132706121251	3.025186165
8.7	0.307663400919	3.02078246978
8.72	0.40525861815	3.01365324959
8.74	0.40525861815	3.00554807722
8.76	0.443939649369	2.99705609455
8.78	0.443939649369	2.98817730156
8.8	0.385620556146	2.97988169951
8.82	0.317779978315	2.97284769416
8.84	0.191025214473	2.96775964223
8.86	0.249344307696	2.96335594701
8.88	0.443939649369	2.95642310744
8.9	0.434418164761	2.9476395293
8.92	0.376099071538	2.93953435694
8.94	0.36657758693	2.93210759035
8.96	0.463577711373	2.92380603737
8.98	0.483215773376	2.91433810252
9	0.492737257984	2.90457857221
9.02	0.60937544443	2.89355744518
9.04	0.716492146268	2.88029876928
9.06	0.852768394718	2.86460616387
9.08	0.959290003768	2.84648557988
9.1	1.01760909699	2.82671658888
9.12	1.08604476761	2.80568005023
9.14	1.16340683005	2.78318553425
9.16	1.22232101606	2.75932825579
9.18	1.24136398527	2.73469140578
9.2	1.28064010928	2.70947136483
9.22	1.2996830785	2.68366813296
9.24	1.29016159389	2.65776968623
9.26	1.30979965589	2.63177007373
9.28	1.26100204728	2.6060620567
9.3	1.22232101606	2.58122882607
9.32	1.21220443866	2.55688357152
9.34	1.25148056267	2.53224672151
9.36	1.12472579883	2.50848465789
9.38	1.01760909699	2.48706130893
9.4	0.871811363933	2.46816710433
9.42	0.794449301495	2.45150449767
9.44	0.755173177487	2.43600827288
9.46	0.764694662095	2.42080959449
9.48	0.794449301495	2.40521815485
9.5	0.784332724099	2.38943033459
9.52	0.735535115484	2.3742316562
9.54	0.658173053045	2.36029457451
9.56	0.589737382426	2.34781547016
9.58	0.551056351207	2.33640753282
9.6	0.551056351207	2.3253864058
9.62	0.580215897819	2.31407368331
9.64	0.599853959822	2.30227298473
9.66	0.629013506434	2.28998431007
9.68	0.629013506434	2.27740403994
9.7	0.599853959822	2.26511536528
9.72	0.551056351207	2.25360626217
9.74	0.531418289203	2.24278151576
9.76	0.531418289203	2.23215314998
9.78	0.638534991042	2.22045361718
9.8	0.677216022261	2.20729610704
9.82	0.687332599657	2.19365062082
9.84	0.667694537653	2.18010034945
9.86	0.638534991042	2.16703805416
9.88	0.618896929038	2.15446373496
9.9	0.560577835815	2.14266898731
9.92	0.551056351207	2.13155264544
9.94	0.560577835815	2.12043630357
9.96	0.580215897819	2.10902836624
9.98	0.618896929038	2.09703723797
10	0.667694537653	2.0841713233
10.02	0.74565169288	2.070037861
10.04	0.852768394718	2.05405366012
10.06	0.940247034552	2.03612350583
10.08	1.02772567439	2.01644377874
10.1	1.09556625222	1.99521085947
10.12	1.13424728344	1.97291272412
10.14	1.10508773683	1.95051937391
10.16	1.12472579883	1.92822123856
10.18	1.0467686436	1.90650629413
10.2	0.94976851916	1.8865409225
10.22	0.94976851916	1.86754555212
10.24	1.00808761238	1.84796699081
10.26	0.969406581164	1.82819204887
10.28	0.940247034552	1.80909551271
10.3	0.900970910545	1.79068333326
10.32	0.900970910545	1.77266391505
10.34	0.911087487941	1.75454333107
10.36	0.94976851916	1.735934771
10.38	1.06640670561	1.71577301875
10.4	1.21220443866	1.69298690731
10.42	1.26100204728	1.66825484245
10.44	1.32884262511	1.64235639572
10.46	1.45559738895	1.61451199558
10.48	1.50379990478	1.58491802264
10.5	1.50379990478	1.55484202455
10.52	1.48475693556	1.52495645615
10.54	1.52343796678	1.49487450712
10.56	1.49427842017	1.46469734325
10.58	1.45559738895	1.43519858516
10.6	1.42643784234	1.40637823285
10.62	1.53295945139	1.37678425991
10.64	1.8346714949	1.34310795045
10.66	2.1072239918	1.30368899558
10.68	2.16554308502	1.26096132481
10.7	2.11674547641	1.2181384392
10.72	2.03878832118	1.17658310122
10.74	2.18458605424	1.13434935747
10.76	2.25302172486	1.08997327968
10.78	2.05842638318	1.0468587986
10.8	1.77635240168	1.00851101075
10.82	1.65019273062	0.974245559425
10.84	1.54307602879	0.942312871831
10.86	1.48475693556	0.912034542188
10.88	1.41632126494	0.883023760183
10.9	1.39727829573	0.854887764576
10.92	1.27052353189	0.8282097463
10.94	1.15388534544	0.803965657527
10.96	1.19256637666	0.780501140306
10.98	1.21220443866	0.756453432152
11	1.30979965589	0.731233391207
11.02	1.32884262511	0.704846968397
11.04	1.28064010928	0.678752141053
11.06	1.27052353189	0.653240504641
11.08	1.32884262511	0.627246843071
11.1	1.32884262511	0.600669990569
11.12	1.23184250067	0.575063139311
11.14	1.21220443866	0.550622669918
11.16	1.08604476761	0.527640177855
11.18	0.920608972549	0.507573640454
11.2	0.823608848106	0.490131462247
11.22	0.658173053045	0.475313643236
11.24	0.531418289203	0.463417729813
11.26	0.434418164761	0.453759365274
11.28	0.317779978315	0.446237383843
11.3	0.278503854308	0.440274545517
11.32	0.2689823697	0.434799683276
11.34	0.278503854308	0.429324821036
11.36	0.230301338481	0.424236769109
11.38	0.142822698646	0.420505528737
11.4	-0.0130916118069	0.419208217869
11.42	-0.178527406868	0.421124408056
11.44	-0.324325139925	0.426152933524
11.46	-0.470122872983	0.434097413653
11.48	-0.606399121432	0.444862633597
11.5	-0.820037432321	0.459126999134
11.52	-0.927154134159	0.476598914799
11.54	-1.08247335182	0.496695189659
11.56	-1.2967067555	0.520486990732
11.58	-1.46214255056	0.548075483793
11.6	-1.50082358178	0.577705145116
11.62	-1.73409995467	0.610054380481
11.64	-1.8120571099	0.645515951126
11.66	-1.86085471851	0.68224506941
11.68	-1.91917381174	0.720045354713
11.7	-1.89953574973	0.758232450328
11.72	-1.89953574973	0.796223165322
11.74	-1.85073814112	0.833725904231
11.76	-1.75373801668	0.869770665809
11.78	-1.64662131484	0.903774259124
11.8	-1.64662131484	0.936706685421
11.82	-1.64662131484	0.969639111717
11.84	-1.64662131484	1.00257153801
11.86	-1.59782370622	1.03501598822
11.88	-1.58830222161	1.0668772475
11.9	-1.62698325283	1.09903010225
11.92	-1.67578086145	1.13205774339
11.94	-1.69541892345	1.16576974124
11.96	-1.73409995467	1.20006493002
11.98	-1.74362143928	1.23484214396
12	-1.78289756329	1.27010733399
12.02	-1.85073814112	1.30644369103
12.04	-1.73409995467	1.34229207199
12.06	-1.66625937684	1.3762956653
12.08	-1.69541892345	1.40991244831
12.1	-1.57878073701	1.44265444491
12.12	-1.69541892345	1.47539644151
12.14	-1.71446189267	1.50949524968
12.16	-1.78289756329	1.54446884424
12.18	-1.8019405325	1.58031722519
12.2	-1.77278098589	1.61606444038
12.22	-1.76325950128	1.65142484525
12.24	-1.78289756329	1.68688641589
12.26	-1.85073814112	1.72322277294
12.28	-1.87989768773	1.76052913123
12.3	-1.95785484296	1.79890665653
12.32	-1.90905723434	1.83757577731
12.34	-1.90905723434	1.87575692199
12.36	-1.90905723434	1.91393806668
12.38	-1.92869529634	1.95231559199
12.4	-1.87989768773	1.99040152183
12.42	-1.8316951719	2.02751745042
12.44	-1.69541892345	2.06278859138
12.46	-1.62698325283	2.09601261314
12.48	-1.31574972472	2.12543994292
12.5	-0.927154134159	2.14786898151
12.52	-0.654601637259	2.16368653922
12.54	-0.266006046702	2.17289261606
12.56	-0.168410829472	2.17723678482
12.58	-0.0714107050298	2.17963500017
12.6	0.113663152035	2.1792124757
12.62	0.278503854308	2.17529080563
12.64	0.414780102758	2.16835796606
12.66	0.618896929038	2.15802119574
12.68	0.842651817322	2.14340570828
12.7	0.969406581164	2.1252851243
12.72	1.056885221	2.10502220627
12.74	1.13424728344	2.08311088123
12.76	1.26100204728	2.05915838792
12.78	1.37764023372	2.03277196511
12.8	1.44548081156	2.00454075466
12.82	1.40679978034	1.97601794874
12.84	1.32884262511	1.94866152469
12.86	1.30979965589	1.92227510188
12.88	1.30979965589	1.89607910876
12.9	1.2996830785	1.86998428141
12.92	1.43595932695	1.84262785736
12.94	1.52343796678	1.81303388442
12.96	1.54307602879	1.78236874447
12.98	1.63055466862	1.75063243749
13	1.60139512201	1.71831293959
13.02	1.5722355754	1.68657663261
13.04	1.62043809122	1.65464989595
13.06	1.71803330845	1.62126518195
13.08	1.71803330845	1.58690451578
13.1	1.66923569984	1.5530318257
13.12	1.64007615323	1.51993870717
13.14	1.60139512201	1.48752399441
13.16	1.65019273062	1.45500811589
13.18	1.62043809122	1.42230180767
13.2	1.58175706	1.39027985616
13.22	1.52343796678	1.35922790589
13.24	1.47464035817	1.32924712264
13.26	1.51391648217	1.29936155424
13.28	1.5722355754	1.26850003366
13.3	1.64007615323	1.23637691637
13.32	1.69839524645	1.20299220238
13.34	1.68887376184	1.1691195123
13.36	1.68887376184	1.13534203706
13.38	1.71803330845	1.10127296636
13.4	1.63055466862	1.06778708658
13.42	1.64007615323	1.03508077837
13.44	1.52343796678	1.00344563717
13.46	1.47464035817	0.973464853917
13.48	1.44548081156	0.944263642219
13.5	1.43595932695	0.915449240834
13.52	1.39727829573	0.887116864607
13.54	1.40679978034	0.859076083847
13.56	1.46511887356	0.830356897308
13.58	1.41632126494	0.801542495923
13.6	1.37764023372	0.773602880936
13.62	1.2996830785	0.746829647814
13.64	1.25148056267	0.721318011402
13.66	1.21220443866	0.696681161389
13.68	1.18304489205	0.672728668082
13.7	1.12472579883	0.649650961173
13.72	1.06640670561	0.627739636129
13.74	1.00808761238	0.606994692949
13.76	0.900970910545	0.587904107719
13.78	0.735535115484	0.571539047459
13.8	0.774811239491	0.556435583909
13.82	0.803970786103	0.540647763653
13.84	0.629013506434	0.526317920728
13.86	0.570694413211	0.514320841532
13.88	0.40525861815	0.504561311218
13.9	0.288620431704	0.497622520719
13.92	0.181503729866	0.492921279104
13.94	-0.00297503441107	0.491135992149
13.96	-0.178527406868	0.492951016562
13.98	-0.41180377976	0.498854328428
14	-0.567122997425	0.5086435962
14.02	-0.654601637259	0.520860842547
14.04	-0.674239699263	0.534149255912
14.06	-0.674239699263	0.547634049897
14.08	-0.771239823705	0.562088845127
14.1	-0.946197103374	0.579263214398
14.12	-1.09258992922	0.599651084724
14.14	-1.20922811567	0.622669265173
14.16	-1.34490927133	0.648210639043
14.18	-1.45202597317	0.676179991488
14.2	-1.57878073701	0.70648805859
14.22	-1.64662131484	0.738742079108
14.24	-1.58830222161	0.771091314473
14.26	-1.60794028362	0.803053739525
14.28	-1.71446189267	0.836277761288
14.3	-1.66625937684	0.870084973983
14.32	-1.74362143928	0.904183782144
14.34	-1.74362143928	0.93905621093
14.36	-1.7924190479	0.974416615801
14.38	-1.7924190479	1.01026499676
14.4	-1.8019405325	1.04620859256
14.42	-1.8019405325	1.08224740321
14.44	-1.78289756329	1.11809578417
14.46	-1.8120571099	1.1540453309
14.48	-1.8120571099	1.1902864731
14.5	-1.8019405325	1.22642644953
14.52	-1.89001426513	1.2633459975
14.54	-1.89953574973	1.30124149765
14.56	-1.91917381174	1.33942859326
14.58	-1.93821678095	1.37800249919
14.6	-1.94833335835	1.41686800058
14.62	-1.96737632756	1.45602509744
14.64	-1.95785484296	1.49527740915
14.66	-2.03581199818	1.53521407756
14.68	-1.87989768773	1.57437117442
14.7	-1.73409995467	1.61051115084
14.72	-1.75373801668	1.64538953056
14.74	-1.58830222161	1.67880993294
14.76	-1.70494040806	1.71174235924
14.78	-1.71446189267	1.74593638224
14.8	-1.66625937684	1.77974359494
14.82	-1.58830222161	1.81228921092
14.84	-1.49130209717	1.84308525411
14.86	-1.35502584872	1.87154853357
14.88	-1.10211141383	1.8961199062
14.9	-0.927154134159	1.91641256168
14.92	-0.732558792486	1.93300969094
14.94	-0.557601512817	1.945911294
14.96	-0.324325139925	1.95473056052
14.98	-0.168410829472	1.95965792022
15	-0.0910487670335	1.96225251618
15.02	-0.0422511584184	1.96358551544
15.04	-0.0321345810225	1.96432937283
15.06	0.00654645019677	1.96458525414
15.08	0.00654645019677	1.96445432513
15.1	-0.0321345810225	1.96471020644
15.12	0.123184636643	1.96379970589
15.14	0.249344307696	1.96007441644
15.16	0.317779978315	1.95440317358
15.18	0.551056351207	1.94571481029
15.2	0.638534991042	1.93381889687
15.22	0.638534991042	1.92104819704
15.24	0.667694537653	1.90798590176
15.26	0.687332599657	1.89443563038
15.28	0.784332724099	1.87971897715
15.3	0.911087487941	1.86276477503
15.32	1.0467686436	1.84318621371
15.34	1.20268295406	1.82069169773
15.36	1.3193211405	1.79547165679
15.38	1.38716171833	1.7684068282
15.4	1.43595932695	1.74017561775
15.42	1.42643784234	1.71155164606
15.44	1.41632126494	1.68312405498
15.46	1.45559738895	1.65440486844
15.48	1.54307602879	1.62441813427
15.5	1.54307602879	1.59355661369
15.52	1.53295945139	1.56279625889
15.54	1.55259751339	1.53194068924
15.56	1.65019273062	1.4999127868
15.58	1.72755479306	1.46613531156
15.6	1.77635240168	1.43109623962
15.62	1.68887376184	1.39644397798
15.64	1.5722355754	1.36383288461
15.66	1.52343796678	1.33287614919
15.68	1.62043809122	1.30143738861
15.7	1.71803330845	1.26805267461
15.72	1.65019273062	1.23437041422
15.74	1.50379990478	1.20283048787
15.76	1.40679978034	1.17372449101
15.78	1.37764023372	1.14588009087
15.8	1.41632126494	1.11794047589
15.82	1.47464035817	1.08903085966
15.84	1.43595932695	1.0599248628
15.86	1.2996830785	1.03256843875
15.88	1.2996830785	1.00657477718
15.9	1.32884262511	0.980289520144
15.92	1.39727829573	0.953028310936
15.94	1.45559738895	0.924499554089
15.96	1.37764023372	0.896167177862
15.98	1.35800217172	0.868810753808
16	1.36811874912	0.8415495446
16.02	1.24136398527	0.815454717256
16.04	1.20268295406	0.791014247862
16.06	1.21220443866	0.766865373935
16.08	1.24136398527	0.742329689696
16.1	1.14436386083	0.718472411235
16.12	0.988449550379	0.697144277123
16.14	0.891449425937	0.67834528736
16.16	0.891449425937	0.660516298841
16.18	0.891449425937	0.642687310322
16.2	0.852768394718	0.625245132116
16.22	0.794449301495	0.608772955153
16.24	0.726013630876	0.59356832583
16.26	0.687332599657	0.579434863524
16.28	0.658173053045	0.565979806997
16.3	0.60937544443	0.553304322023
16.32	0.502258742592	0.542187980152
16.34	0.327301462923	0.533892378097
16.36	0.103546574639	0.529583897722
16.38	-0.100570251641	0.529554134492
16.4	-0.343368109141	0.533993518099
16.42	-0.382644233148	0.541253641522
16.44	-0.401687202364	0.549096955878
16.46	-0.61592060604	0.559273033962
16.48	-0.674239699263	0.572174637015
16.5	-0.800399370317	0.58692102771
16.52	-0.927154134159	0.604196562755
16.54	-1.09258992922	0.624394003389
16.56	-1.32586630211	0.648578565702
16.58	-1.50082358178	0.676845464541
16.6	-1.60794028362	0.707933103195
16.62	-1.64662131484	0.74047871918
16.64	-1.71446189267	0.774089551255
16.66	-1.73409995467	0.808575169728
16.68	-1.78289756329	0.843745144908
16.7	-1.75373801668	0.879111500708
16.72	-1.75373801668	0.914186261041
16.74	-1.78289756329	0.949552616841
16.76	-1.78289756329	0.985210568107
16.78	-1.78289756329	1.02086851937
16.8	-1.78289756329	1.05652647064
16.82	-1.78289756329	1.0921844219
16.84	-1.73409995467	1.12735439708
16.86	-1.539504613	1.16009044276
16.88	-1.45202597317	1.19000574862
16.9	-1.42286642655	1.21875467262
16.92	-1.46214255056	1.24760476239
16.94	-1.52046164378	1.27743080433
16.96	-1.52046164378	1.30784003721
16.98	-1.559142675	1.3386360804
17	-1.66625937684	1.37089010092
17.02	-1.8019405325	1.40557210001
17.04	-1.78289756329	1.44142048097
17.06	-1.8316951719	1.47756640832
17.08	-1.86085471851	1.51449190722
17.1	-1.8316951719	1.55141740613
17.12	-1.82157859451	1.58795014379
17.14	-1.85073814112	1.62467331115
17.16	-1.91917381174	1.66237243068
17.18	-2.00665245157	1.70163069331
17.2	-2.04533348279	1.74215055265
17.22	-2.0548549674	1.78315243715
17.24	-2.03581199818	1.82405910681
17.26	-1.97749290496	1.86419215584
17.28	-1.93821678095	1.9033492527
17.3	-1.75373801668	1.94026880068
17.32	-1.77278098589	1.9755339907
17.34	-1.75373801668	2.01079918073
17.36	-1.71446189267	2.04548117982
17.38	-1.73409995467	2.0799667983
17.4	-1.66625937684	2.11397039161
17.42	-1.61746176823	2.14680760306
17.44	-1.58830222161	2.17886524296
17.46	-1.46214255056	2.20936969068
17.48	-1.35502584872	2.23754137467
17.5	-1.2967067555	2.26405870072
17.52	-1.22827108488	2.28930847912
17.54	-1.16995199166	2.31329070989
17.56	-1.18006856905	2.33679091549
17.58	-1.16043050705	2.36019590625
17.6	-1.12174947583	2.38301770608
17.62	-1.09258992922	2.40516110013
17.64	-1.08247335182	2.42691173294
17.66	-1.11163289844	2.44885279545
17.68	-1.12174947583	2.47118661919
17.7	-1.13127096044	2.49371682355
17.72	-0.936675618766	2.51439628934
17.74	-0.693877761267	2.53070182314
17.76	-0.654601637259	2.54418661713
17.78	-0.577239574821	2.55650502925
17.8	-0.577239574821	2.56804982075
17.82	-0.440963326371	2.57823184976
17.84	-0.0714107050298	2.58335559007
17.86	0.483215773376	2.57923753939
17.88	1.35800217172	2.56082535994
17.9	2.3500218493	2.52374511973
17.92	3.96450858311	2.4605998154
17.94	5.73431453459	2.36361158423
17.96	6.94949400767	2.2367734988
17.98	8.16526857353	2.08562587299
18	9.34176701539	1.9105555171
18.02	10.1296698667	1.71584114828
18.04	10.8003394387	1.50654105523
18.06	10.8491370474	1.29004629037
18.08	10.5087439726	1.07646748017
18.1	11.1312110289	0.860067930152
18.12	10.499222488	0.643763594983
18.14	10.4891059106	0.433880310997
18.16	10.2849890843	0.226139361048
18.18	9.85711736979	0.0247182965068
18.2	9.22512882894	-0.16610416548
18.22	9.04065006466	-0.348761954416
18.24	7.38748229963	-0.513043278059
18.26	6.774536728	-0.654663468336
18.28	6.26870785821	-0.785095914198
18.3	5.67599544137	-0.904542947194
18.32	5.53971919292	-1.01670009354
18.34	5.15052850958	-1.12360257056
18.36	4.62565667057	-1.22136442236
18.38	4.21682792522	-1.30978926832
18.4	3.92523245911	-1.39120987216
18.42	3.52652029115	-1.46572739967
18.44	3.48783925993	-1.53587099518
18.46	3.17660573182	-1.6025154451
18.48	2.94332935892	-1.663714796
18.5	2.75825550186	-1.72073064461
18.52	2.68089343942	-1.77512213402
18.54	2.58329822219	-1.82776405064
18.56	2.40834094252	-1.87768044229
18.58	2.27206469407	-1.92448449865
18.6	2.31134081808	-1.97031855377
18.62	2.14590502302	-2.01489101218
18.64	2.0971074144	-2.05732113656
18.66	1.95130968135	-2.09780530752
18.68	1.86383104151	-2.13595671474
18.7	1.76683091707	-2.17226333433
18.72	1.60139512201	-2.20594559472
18.74	1.50379990478	-2.23699754499
18.76	1.28064010928	-2.26484194513
18.78	0.911087487941	-2.2867592211
18.8	0.521896804596	-2.30108906403
18.82	0.317779978315	-2.30948583186
18.84	0.2689823697	-2.31535345534
18.86	0.191025214473	-2.31995353118
18.88	0.0261845122004	-2.32212562845
18.9	-0.27552753131	-2.31963219825
18.92	-0.460006295587	-2.31227685999
18.94	-0.479644357591	-2.30288035345
18.96	-0.537963450814	-2.29270427537
18.98	-0.790877885709	-2.279415862
19	-1.20922811567	-2.25941480199
19.02	-1.44250448856	-2.23289747595
19.04	-1.50082358178	-2.20346419524
19.06	-1.30622824011	-2.17539367703
19.08	-1.33538778672	-2.14897751676
19.1	-1.42286642655	-2.12139497462
19.12	-1.8316951719	-2.08884935864
19.14	-1.99653587418	-2.05056704818
19.16	-1.98701438957	-2.01073154554
19.18	-1.93821678095	-1.97147923384
19.2	-1.93821678095	-1.93271489822
19.22	-2.03581199818	-1.89297461043
19.24	-2.12329063802	-1.85138358406
19.26	-2.0548549674	-1.80960212801
19.28	-1.98701438957	-1.76918343444
19.3	-1.97749290496	-1.7295383615
19.32	-1.96737632756	-1.69008966917
19.34	-1.90905723434	-1.65132533355
19.36	-1.89953574973	-1.61323940371
19.38	-1.60794028362	-1.57816464338
19.4	-1.35502584872	-1.54853498205
19.42	-1.31574972472	-1.52182722632
19.44	-1.18006856905	-1.49686904338
19.46	-1.36454733333	-1.47142288436
19.48	-1.43298300395	-1.44344758098
19.5	-1.34490927133	-1.41566865823
19.52	-1.31574972472	-1.38906206827
19.54	-1.38418539533	-1.36206271707
19.56	-1.5496211904	-1.33272465121
19.58	-1.8316951719	-1.29891148759
19.6	-1.92869529634	-1.26130758291
19.62	-2.09413109141	-1.22107931903
19.64	-2.23992882446	-1.17773871987
19.66	-2.35656701091	-1.13177376152
19.68	-2.55116235258	-1.08269646788
19.7	-2.74575769425	-1.02972726742
19.72	-2.89155542731	-0.9733541362
19.74	-3.00819361376	-0.914356645789
19.76	-3.0855556762	-0.853419152889
19.78	-2.94987452053	-0.793064850922
19.8	-3.05639612958	-0.733002144421
19.82	-3.27062953326	-0.669731887793
19.84	-3.28015101787	-0.604224082281
19.86	-3.04687464498	-0.540953825653
19.88	-3.00819361376	-0.480403143065
19.9	-2.96891748975	-0.42063203203
19.92	-2.89155542731	-0.36202730286
19.94	-2.73564111686	-0.305755337418
19.96	-2.50236474397	-0.25337527881
19.98	-2.24945030907	-0.205857128279
20	-2.00665245157	-0.163296100673
20.02	-1.96737632756	-0.123555812882
20.04	-1.96737632756	-0.0842082863304
20.06	-2.0548549674	-0.0439859733808
20.08	-2.12329063802	-0.00220451732659
20.1	-2.06497154479	0.0396781045015
20.12	-2.06497154479	0.0809775353973
20.14	-2.13281212263	0.122955372072
20.16	-2.09413109141	0.165224804212
20.18	-2.02569542079	0.206423069334
20.2	-2.13281212263	0.248008144768
20.22	-2.16197166924	0.290955982687
20.24	-2.09413109141	0.333517010293
20.26	-2.13281212263	0.375786442434
20.28	-2.16197166924	0.418734280352
20.3	-2.16197166924	0.461973713737
20.32	-2.22981224707	0.5058915529
20.34	-2.13281212263	0.549517796597
20.36	-2.25956688647	0.593441586688
20.38	-2.28872643308	0.638924519884
20.4	-2.3274074643	0.685085858858
20.42	-2.24945030907	0.730854436591
20.44	-2.21076927785	0.775456632461
20.46	-2.19113121585	0.819475637398
20.48	-2.21076927785	0.863494642335
20.5	-2.19113121585	0.907513647272
20.52	-2.25956688647	0.952020628295
20.54	-2.28872643308	0.99750356149
20.56	-2.21076927785	1.0424985186
20.58	-2.14233360723	1.08602954745
20.6	-2.11317406062	1.12858462413
20.62	-2.06497154479	1.17036608018
20.64	-1.99653587418	1.21098115437
20.66	-1.89953574973	1.24994187061
20.68	-1.90905723434	1.28802780045
20.7	-1.77278098589	1.32484618265
20.72	-1.62698325283	1.35884382504
20.74	-1.66625937684	1.39177625134
20.76	-1.539504613	1.42383389124
20.78	-1.72457847006	1.45647472207
20.8	-1.76325950128	1.49135310178
20.82	-1.74362143928	1.52642191119
20.84	-1.78289756329	1.56168710121
20.86	-1.72457847006	1.59676186155
20.88	-1.69541892345	1.63096183548
20.9	-1.64662131484	1.66438223786
20.92	-1.73409995467	1.69818945056
20.94	-1.66625937684	1.73219304387
20.96	-1.56866415961	1.76454227924
20.98	-1.51034506639	1.7953323715
21	-1.47166403517	1.82515246251
21.02	-1.35502584872	1.85341936135
21.04	-1.13127096044	1.87828232944
21.06	-0.800399370317	1.89759903275
21.08	-0.41180377976	1.90972106425
21.1	0.0160679348046	1.9136784227
21.12	0.521896804596	1.90829877531
21.14	0.735535115484	1.89572445611
21.16	0.599853959822	1.88237056535
21.18	0.706375568872	1.86930827007
21.2	0.794449301495	1.85430002136
21.22	0.940247034552	1.836953058
21.24	1.08604476761	1.81669013998
21.26	1.32884262511	1.79254126605
21.28	1.69839524645	1.76226888734
21.3	2.15542650763	1.7237306698
21.32	2.54461719097	1.67673023281
21.34	2.78741504847	1.62340991042
21.36	2.76837207926	1.56785203914
21.38	2.58329822219	1.51433533613
21.4	2.41786242713	1.46432372963
21.42	2.38870288052	1.41625807656
21.44	2.30122424068	1.36935880534
21.46	2.26254320946	1.32372113084
21.48	2.18458605424	1.27924983821
21.5	2.26254320946	1.23477854557
21.52	2.19470263163	1.19020608716
21.54	2.19470263163	1.14631203453
21.56	2.30122424068	1.1013527658
21.58	2.3500218493	1.0548403049
21.6	2.18458605424	1.00949422587
21.62	2.02926683657	0.967355696959
21.64	2.05842638318	0.926478764762
21.66	2.24290514746	0.883465449455
21.68	2.14590502302	0.83957734775
21.7	1.91262865013	0.798992011019
21.72	1.74719285507	0.762393795967
21.74	1.87335252612	0.726188342155
21.76	1.92215013473	0.688233315547
21.78	1.80551194829	0.650956694716
21.8	1.71803330845	0.615721242149
21.82	1.69839524645	0.5815569566
21.84	1.70851182385	0.547487885897
21.86	1.64007615323	0.514002006126
21.88	1.5722355754	0.48187888884
21.9	1.48475693556	0.45130896373
21.92	1.51391648217	0.421322229553
21.94	1.32884262511	0.39289463848
21.96	1.29016159389	0.36670459629
21.98	1.24136398527	0.341389340499
22	1.19256637666	0.317050036879
22.02	1.13424728344	0.293781900278
22.04	1.01760909699	0.272263336474
22.06	1.03724715899	0.251714773914
22.08	1.02772567439	0.23106504558
22.1	1.01760909699	0.210611697867
22.12	0.969406581164	0.190741541085
22.14	0.774811239491	0.173299362878
22.16	0.434418164761	0.161207068836
22.18	0.0845036054234	0.156017851134
22.2	-0.27552753131	0.157928090393
22.22	-0.61592060604	0.166842571766
22.24	-0.927154134159	0.182273319168
22.26	-1.11163289844	0.202661189494
22.28	-1.21874960027	0.225965014482
22.3	-1.31574972472	0.251310007731
22.32	-1.47166403517	0.27918414533
22.34	-1.62698325283	0.31017061821
22.36	-1.8019405325	0.344459856064
22.38	-1.78289756329	0.380308237022
22.4	-1.7924190479	0.416061403133
22.42	-1.93821678095	0.453367761422
22.44	-1.98701438957	0.492620073127
22.46	-2.09413109141	0.533431527937
22.48	-2.13281212263	0.575700960077
22.5	-2.30776940229	0.620106775327
22.52	-2.30776940229	0.666262163372
22.54	-2.26908837107	0.712030741106
22.56	-2.21076927785	0.756829317595
22.58	-2.06497154479	0.799586725822
22.6	-2.06497154479	0.840886156717
22.62	-2.0744930294	0.882280802459
22.64	-2.04533348279	0.923479067581
22.66	-1.99653587418	0.963897761151
22.68	-1.98701438957	1.00373326379
22.7	-1.98701438957	1.04347355158
22.72	-2.00665245157	1.08341021999
22.74	-1.95785484296	1.12305529294
22.76	-1.93821678095	1.16201600918
22.78	-1.93821678095	1.20078034479
22.8	-1.85073814112	1.23866989402
22.82	-1.8316951719	1.27549422715
22.84	-1.85073814112	1.31231856028
22.86	-1.8019405325	1.34884534701
22.88	-1.8019405325	1.38488415766
22.9	-1.82157859451	1.42111934893
22.92	-1.75373801668	1.45687251504
22.94	-1.67578086145	1.49116770383
22.96	-1.56866415961	1.52361215404
22.98	-1.50082358178	1.55430703145
23	-1.38418539533	1.58315712122
23.02	-1.34490927133	1.61044806789
23.04	-1.38418539533	1.63773901455
23.06	-1.36454733333	1.66522634184
23.08	-1.33538778672	1.69222569304
23.1	-1.31574972472	1.71873706816
23.12	-1.2770686935	1.74466525234
23.14	-1.19911153827	1.76942705466
23.16	-0.985473227382	1.79127290231
23.18	-0.712920730482	1.80825684189
23.2	-0.363006171145	1.81901611091
23.22	0.0553440588119	1.82209273203
23.24	0.40525861815	1.81748670526
23.26	0.36657758693	1.80976834321
23.28	0.376099071538	1.80234157662
23.3	0.336822947531	1.79521235643
23.32	0.327301462923	1.78857111233
23.34	0.40525861815	1.78124551152
23.36	0.74565169288	1.76973640841
23.38	1.23184250067	1.74996146647
23.4	1.76683091707	1.7199747323
23.42	2.13638353841	1.68094258774
23.44	2.32086230269	1.63637012933
23.46	2.3500218493	1.58966128781
23.48	2.26254320946	1.54353563722
23.5	2.12626696102	1.49964753552
23.52	1.96083116595	1.45877655425
23.54	1.91262865013	1.42004195609
23.56	1.76683091707	1.38324736042
23.58	1.65019273062	1.34907712394
23.6	1.562118998	1.31695400665
23.62	1.50379990478	1.28629481762
23.64	1.5722355754	1.25553446282
23.66	1.5722355754	1.22408975131
23.68	1.49427842017	1.19342461136
23.7	1.47464035817	1.16373542358
23.72	1.50379990478	1.13395102095
23.74	1.51391648217	1.10377385708
23.76	1.41632126494	1.07447147961
23.78	1.37764023372	1.04653186462
23.8	1.41632126494	1.01859224963
23.82	1.51391648217	0.989289872161
23.84	1.53295945139	0.958821112825
23.86	1.47464035817	0.92874511473
23.88	1.43595932695	0.899639117879
23.9	1.50379990478	0.870241525561
23.92	1.562118998	0.839582336534
23.94	1.64007615323	0.807560385021
23.96	1.64007615323	0.774758861957
23.98	1.60139512201	0.742344149204
24	1.62043809122	0.710125817072
24.02	1.64007615323	0.677520674627
24.04	1.66923569984	0.644427556097
24.06	1.71803330845	0.610554866014
24.08	1.562118998	0.577753342949
24.1	1.42643784234	0.547867774546
24.12	1.42643784234	0.519339017699
24.14	1.45559738895	0.490518665386
24.16	1.48475693556	0.461115122141
24.18	1.42643784234	0.432003174362
24.2	1.32884262511	0.404450369688
24.22	1.32884262511	0.377873517185
24.24	1.30979965589	0.351487094375
24.26	1.35800217172	0.324809076099
24.28	1.3193211405	0.298035842977
24.3	1.26100204728	0.272232611099
24.32	1.15388534544	0.248083737172
24.34	0.862289879326	0.227921984924
24.36	0.599853959822	0.213300546533
24.38	0.414780102758	0.203154205907
24.4	0.376099071538	0.195245414164
24.42	0.307663400919	0.18840778944
24.44	0.0160679348046	0.185170476082
24.46	-0.567122997425	0.190681026709
24.48	-0.887878010151	0.205231036784
24.5	-1.41334494195	0.228243266305
24.52	-1.89001426513	0.261276858376
24.54	-2.27860985568	0.302963099584
24.56	-2.56068383719	0.351356036513
24.58	-2.62852441502	0.403248119035
24.6	-2.62852441502	0.455818607336
24.62	-2.47320519736	0.506835903459
24.64	-2.35656701091	0.555133625542
24.66	-2.3274074643	0.601973370294
24.68	-2.33692894891	0.648616734426
24.7	-2.28872643308	0.694873288246
24.72	-2.20065270046	0.739767079581
24.74	-2.14233360723	0.783196942658
24.76	-2.13281212263	0.825948399957
24.78	-2.20065270046	0.869283048188
24.8	-2.44404565074	0.9157300317
24.82	-2.66780053903	0.966848493598
24.84	-2.97903406715	1.02331683966
24.86	-3.16351283142	1.08474230865
24.88	-3.29978907987	1.14937532776
24.9	-3.33847011109	1.21575791967
24.92	-3.41642726632	1.28330689344
24.94	-3.45510829754	1.35202224908
24.96	-3.44558681293	1.42102920019
24.98	-3.52354396816	1.490720508
25	-3.68897976322	1.56284574531
25.02	-3.90261807411	1.63876172368
25.04	-4.02937283795	1.7180816328
25.06	-4.03889432256	1.79876430441
25.08	-4.4179684285	1.88333293192
25.1	-4.37928739729	1.97130549018
25.12	-4.46676603712	2.05976602452
25.14	-3.93177762072	2.1437514611
25.16	-3.76634182566	2.22073265556
25.18	-3.71813930983	2.29557746692
25.2	-3.56222499938	2.36838111001
25.22	-3.25099147126	2.43651327472
25.24	-2.95939600514	2.49861714948
25.26	-2.63864099242	2.55459751946
25.28	-2.41488610413	2.60513279042
25.3	-2.15245018463	2.65080615331
25.32	-1.77278098589	2.69005846501
25.34	-1.51034506639	2.72288972554
25.36	-1.26754720889	2.75066864829
25.38	-1.12174947583	2.77456161514
25.4	-0.965835165378	2.79543746155
25.42	-0.712920730482	2.81222502051
25.44	-0.548080028209	2.8248350281
25.46	-0.508803904202	2.83540386742
25.48	-0.479644357591	2.84528835004
25.5	-0.51832538881	2.8552680475
25.52	-0.479644357591	2.86524774497
25.54	-0.508803904202	2.87513222758
25.56	-0.567122997425	2.8858914966
25.58	-0.499282419594	2.89655555077
25.6	-0.372527655752	2.90527365152
25.62	-0.343368109141	2.91243260917
25.64	-0.324325139925	2.91910954166
25.66	-0.226729922695	2.92462009229
25.68	-0.149367860256	2.92838107012
25.7	-0.120208313645	2.93107683186
25.72	0.0452274814161	2.93182664018
25.74	0.0845036054234	2.93052932931
25.76	0.0553440588119	2.92913085267
25.78	-0.0321345810225	2.92889875789
25.8	-0.00297503441107	2.92924985405
25.82	0.132706121251	2.92795254318
25.84	0.132706121251	2.92529842075
25.86	0.161865667862	2.92235270286
25.88	0.278503854308	2.91794900764
25.9	0.346939524927	2.91169457385
25.92	0.2689823697	2.9055353549
25.94	0.152344183254	2.90132208937
25.96	0.0452274814161	2.89934637272
25.98	0.0160679348046	2.89873341856
26	0.113663152035	2.89743610769
26.02	0.123184636643	2.89506762981
26.04	0.0553440588119	2.89328234285
26.06	-0.0226130964147	2.89295503323
26.08	0.123184636643	2.89194931783
26.1	0.307663400919	2.88764083745
26.12	0.356461009535	2.88099959335
26.14	0.560577835815	2.87182920489
26.16	0.891449425937	2.85730893227
26.18	1.98999071257	2.82849453089
26.2	3.61399893099	2.77245463445
26.22	5.34512385125	2.68286340663
26.24	6.66742002616	2.56273796786
26.26	7.97067323186	2.41635703528
26.28	8.90437381621	2.2476065648
26.3	9.70179815212	2.06154484511
26.32	10.4117438482	1.86040942511
26.34	10.7033393143	1.64925859349
26.36	10.6741797677	1.43548340267
26.38	11.3644874018	1.21509673097
26.4	11.0627753583	0.990824103369
26.42	10.7033393143	0.773162956643
26.44	11.1698920601	0.554430642899
26.46	9.99339361824	0.342797786116
26.48	10.8003394387	0.134860455547
26.5	10.314148631	-0.0762844251505
26.52	9.69168157472	-0.276342727208
26.54	9.61431951229	-0.469402738078
26.56	9.87675543179	-0.664313487519
26.58	8.8752142696	-0.851833184532
26.6	8.92341678543	-1.02981949508
26.62	8.47650210165	-1.20381868395
26.64	8.14563051153	-1.37004001009
26.66	7.01792967829	-1.52167561198
26.68	6.39546262205	-1.65580953499
26.7	5.84083614364	-1.77817252264
26.72	5.2088476028	-1.88866936011
26.74	5.12136896297	-1.99197152577
26.76	4.71313531041	-2.0903165685
26.78	4.46974236012	-2.18214534521
26.8	4.31442314245	-2.26998700023
26.82	3.9353490365	-2.35248472202
26.84	3.79907278805	-2.42982894027
26.86	3.77943472605	-2.50561401541
26.88	3.653275055	-2.57994111322
26.9	3.4003606201	-2.65047746997
26.92	3.11828663859	-2.71566394256
26.94	2.84573414169	-2.77530415036
26.96	2.69041492403	-2.83066564102
26.98	2.54461719097	-2.88301596217
27	2.41786242713	-2.93264075835
27.02	2.32086230269	-2.98002800564
27.04	2.14590502302	-3.0246956789
27.06	1.86383104151	-3.06479303955
27.08	1.61091660662	-3.09954051603
27.1	1.26100204728	-3.12825970257
27.12	0.920608972549	-3.15007581277
27.14	0.551056351207	-3.164792466
27.16	0.230301338481	-3.1726060429
27.18	0.161865667862	-3.17652771296
27.2	-0.0130916118069	-3.17801545352
27.22	-0.266006046702	-3.17522447694
27.24	-0.430846748975	-3.16825594898
27.26	-0.401687202364	-3.15993060947
27.28	-0.401687202364	-3.15189686542
27.3	-0.499282419594	-3.1428871692
27.32	-0.470122872983	-3.13319311628
27.34	-0.382644233148	-3.12466544521
27.36	-0.295165593314	-3.11788734695
27.38	-0.343368109141	-3.11150200993
27.4	-0.51832538881	-3.10288507495
27.42	-0.810515947713	-3.08959666158
27.44	-1.13127096044	-3.0701787925
27.46	-1.40382345734	-3.04482784832
27.48	-1.51034506639	-3.01568616308
27.5	-1.49130209717	-2.98566969145
27.52	-1.48118551978	-2.95594481528
27.54	-1.44250448856	-2.9267079152
27.56	-1.38418539533	-2.89844101636
27.58	-1.24790914688	-2.87212007093
27.6	-1.16995199166	-2.84794145955
27.62	-1.25743063149	-2.82366763332
27.64	-1.49130209717	-2.79618030603
27.66	-1.75373801668	-2.76372990489
27.68	-1.97749290496	-2.72641759568
27.7	-2.13281212263	-2.6853145454
27.72	-2.19113121585	-2.64207511202
27.74	-2.43452416614	-2.5958185582
27.76	-2.66780053903	-2.54479531114
27.78	-2.8623958807	-2.48949334695
27.8	-2.8427578187	-2.43244180995
27.82	-2.76480066347	-2.37636622513
27.84	-2.67732202364	-2.32194499826
27.86	-2.59936486841	-2.26917812934
27.88	-2.68743860103	-2.21631009464
27.9	-2.71659814764	-2.16226972716
27.92	-2.66780053903	-2.10842574029
27.94	-2.62852441502	-2.05546249075
27.96	-2.54104577519	-2.00376678885
27.98	-2.35656701091	-1.95479066099
28	-2.44404565074	-1.90678453437
28.02	-2.63864099242	-1.85595766794
28.04	-2.62852441502	-1.80328601387
28.06	-2.6094814458	-1.75090595526
28.08	-2.56068383719	-1.69920430243
28.1	-2.5898433838	-1.64769903022
28.12	-2.67732202364	-1.59502737614
28.14	-2.87191736531	-1.53953498225
28.16	-2.79396021008	-1.4828762065
28.18	-2.66780053903	-1.42825859901
28.2	-2.62852441502	-1.37529534947
28.22	-2.52200280597	-1.32379007726
28.24	-2.56068383719	-1.27296321083
28.26	-2.61900293041	-1.22116634315
28.28	-2.56068383719	-1.16936947547
28.3	-2.52200280597	-1.11854260904
28.32	-2.51188622857	-1.0682037187
28.34	-2.64816247702	-1.01660323164
28.36	-2.66780053903	-0.963443601481
28.38	-2.64816247702	-0.910283971321
28.4	-2.62852441502	-0.8575171024
28.42	-2.65768396163	-0.804655018634
28.44	-2.79396021008	-0.750138576917
28.46	-2.97903406715	-0.692408634144
28.48	-3.21231044004	-0.630495189072
28.5	-3.15399134682	-0.566832171204
28.52	-3.23194850204	-0.502972772715
28.54	-3.44558681293	-0.436197419565
28.56	-3.52354396816	-0.366506111755
28.58	-3.59138454599	-0.295356826613
28.6	-3.67886318582	-0.222654349295
28.62	-3.74729885644	-0.148392728872
28.64	-3.54258693737	-0.0754938709342
28.66	-3.64970363921	-0.00357096516844
28.68	-3.63066066999	0.0692326779236
28.7	-3.43606532832	0.139899937907
28.72	-3.50390590615	0.209299650251
28.74	-3.39678920431	0.278306601356
28.76	-3.30931056448	0.345367599044
28.78	-3.31942714188	0.411654976107
28.8	-3.11471522281	0.475996399754
28.82	-3.05639612958	0.537707513278
28.84	-3.0855556762	0.599127031336
28.86	-3.1248318002	0.6612309061
28.88	-2.99807703636	0.722459994466
28.9	-3.06651270698	0.783105891899
28.92	-3.1051937382	0.844822956351
28.94	-2.94987452053	0.905373638938
28.96	-2.98855555175	0.964757939661
28.98	-2.8427578187	1.02307107337
29	-2.81359827209	1.07963463427
29.02	-2.88143884992	1.13658500549
29.04	-2.87191736531	1.19411856765
29.06	-2.5702053218	1.24853979452
29.08	-2.27860985568	1.29702794629
29.1	-1.99653587418	1.33977940359
29.12	-1.57878073701	1.3755325697
29.14	-1.034270836	1.40166308543
29.16	-0.479644357591	1.41680223737
29.18	-0.0130916118069	1.42172959706
29.2	0.385620556146	1.41800430762
29.22	0.60937544443	1.40805434761
29.24	0.454056226765	1.3974200309
29.26	0.132706121251	1.39155240742
29.28	0.0553440588119	1.38967190562
29.3	0.142822698646	1.38769023805
29.32	0.298141916312	1.3832805919
29.34	0.395737133542	1.3763418014
29.36	0.483215773376	1.36755227233
29.38	0.658173053045	1.35613838406
29.4	0.852768394718	1.34102896959
29.42	0.988449550379	1.32261679014
29.44	1.15388534544	1.30119344118
29.46	1.64007615323	1.27325382619
29.48	1.96083116595	1.237244753
29.5	2.05842638318	1.19705217751
29.52	2.25302172486	1.15393769643
29.54	2.53509570636	1.10605652211
29.56	2.57377673758	1.05496779768
29.58	2.39881945791	1.00524183572
29.6	2.39881945791	0.957265446562
29.62	2.6225743462	0.907051508521
29.64	2.52497912897	0.85557597377
29.66	2.37918139591	0.806534368521
29.68	2.23338366285	0.760408717933
29.7	2.38870288052	0.7141878525
29.72	2.34050036469	0.666895820047
29.74	2.14590502302	0.62203176617
29.76	2.1072239918	0.579500476022
29.78	2.17506456963	0.536677590408
29.8	2.28218127147	0.492105131997
29.82	2.17506456963	0.447532673586
29.84	2.00962877457	0.405685740144
29.86	2.00010728996	0.365588379499
29.88	2.21374560085	0.32344985059
29.9	2.18458605424	0.27946653404
29.92	2.05842638318	0.237036409665
29.94	2.03878832118	0.196064262622
29.96	2.22386217825	0.153437757627
29.98	2.29170275608	0.108282108284
30	2.19470263163	0.0634180544071
30.02	1.98046922796	0.0216663358112
30.04	2.03878832118	-0.0185262396802
30.06	2.22386217825	-0.0611527446745
30.08	2.3696599113	-0.10708796557
30.1	2.15542650763	-0.152338829759
30.12	1.91262865013	-0.193019381337
30.14	1.92215013473	-0.231367169186
30.16	2.03878832118	-0.270976553745
30.18	2.19470263163	-0.313311463273
30.2	1.94178819674	-0.354676371556
30.22	1.69839524645	-0.391078205988
30.24	1.69839524645	-0.425046110917
30.26	1.72755479306	-0.459305611312
30.28	1.88346910352	-0.495415850278
30.3	1.86383104151	-0.532888851729
30.32	1.59127854461	-0.56743994759
30.34	1.43595932695	-0.597712326305
30.36	1.33895920251	-0.6254615116
30.38	1.23184250067	-0.651169528632
30.4	1.06640670561	-0.674152020695
30.42	0.862289879326	-0.693438986544
30.44	0.74565169288	-0.709518402266
30.46	0.521896804596	-0.722193887241
30.48	0.113663152035	-0.728549486807
30.5	-0.382644233148	-0.725859675996
30.52	-0.95631368077	-0.712470096857
30.54	-1.39370687994	-0.68896989125
30.56	-1.70494040806	-0.65798341837
30.58	-1.96737632756	-0.621260251013
30.6	-2.08401451401	-0.580746342598
30.62	-2.14233360723	-0.538482861385
30.64	-2.21076927785	-0.494951832534
30.66	-2.29824791769	-0.449861660579
30.68	-2.31788597969	-0.403700321605
30.7	-2.24945030907	-0.358026958718
30.72	-2.24945030907	-0.313037952536
30.74	-2.39524804213	-0.266590969024
30.76	-2.39524804213	-0.218686008182
30.78	-2.36608849552	-0.171072642805
30.8	-2.25956688647	-0.124816088985
30.82	-2.0744930294	-0.0814754898266
30.84	-1.99653587418	-0.0407652007908
30.86	-2.00665245157	-0.000733317533296
30.88	-2.10365257601	0.0403697327425
30.9	-2.21076927785	0.0835139512811
30.92	-2.26908837107	0.12831252777
30.94	-2.21076927785	0.17311110426
30.96	-2.27860985568	0.218004895595
30.98	-2.29824791769	0.263773473329
31	-2.31788597969	0.309934812302
31.02	-2.39524804213	0.357066152521
31.04	-2.36608849552	0.404679517897
31.06	-2.31788597969	0.451519262649
31.08	-2.29824791769	0.497680601623
31.1	-2.26908837107	0.543353964511
31.12	-2.21076927785	0.588152541
31.14	-2.09413109141	0.631201544692
31.16	-2.04533348279	0.672596190434
31.18	-1.93821678095	0.712431693072
31.2	-2.02569542079	0.752070815089
31.22	-2.01617393618	0.792489508659
31.24	-1.93821678095	0.83203341583
31.26	-1.89953574973	0.870410941137
31.28	-1.84121665651	0.907818465199
31.3	-1.78289756329	0.944059607397
31.32	-1.70494040806	0.978937987111
31.34	-1.69541892345	1.01294158043
31.36	-1.59782370622	1.04587400672
31.38	-1.59782370622	1.07783048085
31.4	-1.62698325283	1.11007855044
31.42	-1.57878073701	1.14213619034
31.44	-1.56866415961	1.1736106393
31.46	-1.49130209717	1.20421030187
31.48	-1.43298300395	1.23345315288
31.5	-1.31574972472	1.26094048017
31.52	-1.18959005366	1.28599387795
31.54	-0.975951742774	1.30764929592
31.56	-0.868835040936	1.32609716375
31.58	-0.732558792486	1.34211110209
31.6	-0.528441966206	1.35472110967
31.62	-0.489165842198	1.36489718776
31.64	-0.372527655752	1.37351412274
31.66	-0.41180377976	1.38135743709
31.68	-0.537963450814	1.3908551094
31.7	-0.499282419594	1.4012275681
31.72	-0.295165593314	1.40917204823
31.74	-0.0517726430262	1.4126414306
31.76	0.132706121251	1.41183209581
31.78	0.220184761085	1.40830318699
31.8	0.434418164761	1.40175715773
31.82	0.638534991042	1.39102762617
31.84	0.638534991042	1.37825692635
31.86	0.589737382426	1.36597420262
31.88	0.580215897819	1.35427466982
31.9	0.638534991042	1.34208716093
31.92	0.706375568872	1.32863805533
31.94	0.862289879326	1.31295140085
31.96	1.23184250067	1.29201007705
31.98	1.48475693556	1.26484408268
32	1.63055466862	1.23369096664
32.02	1.77635240168	1.19962189594
32.04	1.96083116595	1.16225006026
32.06	2.19470263163	1.12069472229
32.08	2.49581958236	1.07378950015
32.1	2.57377673758	1.02309353695
32.12	2.55413867558	0.971814382815
32.14	2.58329822219	0.920440013838
32.16	2.66125537742	0.867994477841
32.18	2.57377673758	0.815644156691
32.2	2.3696599113	0.766209790203
32.22	2.16554308502	0.720857760239
32.24	2.19470263163	0.677255303073
32.26	2.25302172486	0.632778059508
32.28	2.19470263163	0.588300815943
32.3	2.06794786779	0.545674310949
32.32	2.00010728996	0.504993759371
32.34	2.0971074144	0.464021612328
32.36	2.03878832118	0.422662654972
32.38	2.02926683657	0.381982103395
32.4	1.95130968135	0.342176338215
32.42	1.95130968135	0.303150144588
32.44	2.03878832118	0.263249164563
32.46	1.95130968135	0.223348184538
32.48	1.87335252612	0.185101562463
32.5	1.82515001029	0.148116537099
32.52	1.98999071257	0.10996512987
32.54	2.03878832118	0.0696773395329
32.56	1.89299058812	0.0303595504399
32.58	1.80551194829	-0.00662547492421
32.6	1.79599046368	-0.0426404990439
32.62	1.88346910352	-0.0794350947159
32.64	1.90251207273	-0.117294906478
32.66	1.8150334329	-0.154470361535
32.68	1.70851182385	-0.189705814102
32.7	1.63055466862	-0.223096479027
32.72	1.75671433967	-0.25696916911
32.74	1.8543095569	-0.293079408076
32.76	1.70851182385	-0.328707621883
32.78	1.60139512201	-0.361806691342
32.8	1.562118998	-0.393441832542
32.82	1.62043809122	-0.425267403434
32.84	1.66923569984	-0.458164141345
32.86	1.77635240168	-0.49262002236
32.88	1.8150334329	-0.528533880706
32.9	1.71803330845	-0.563864548119
32.92	1.65971421523	-0.597642023356
32.94	1.67935227724	-0.631032688281
32.96	1.71803330845	-0.665006544137
32.98	1.84419297951	-0.700628807017
33	1.72755479306	-0.736346284743
33.02	1.5722355754	-0.769344188427
33.04	1.28064010928	-0.797872945274
33.06	1.15388534544	-0.822218199821
33.08	1.13424728344	-0.84509952611
33.1	1.10508773683	-0.867492876313
33.12	1.13424728344	-0.889886226516
33.14	1.12472579883	-0.912475957338
33.16	1.10508773683	-0.934774092695
33.18	1.01760909699	-0.956001061033
33.2	0.862289879326	-0.974800050796
33.22	0.774811239491	-0.991171061984
33.24	0.618896929038	-1.00510814367
33.26	0.424896680153	-1.01554607976
33.28	0.376099071538	-1.02355603728
33.3	0.239822823089	-1.02971525622
Vernier Format 2
mario2conmiograma.qmbl 25/06/2017 20:41:50 .
Serie 4
Tiempo	Caudal	Volumen
		Vol
s	L/s	L

0	-0.295165593314	-0
0.02	-0.27552753131	0.00570693124624
0.04	-0.236846500091	0.0108306715602
0.06	-0.178527406868	0.0149844106298
0.08	-0.120208313645	0.017971767835
0.1	-0.061294127634	0.0197867922478
0.12	-0.0130916118069	0.0205306496422
0.14	0.0261845122004	0.0203997206382
0.16	0.0160679348046	0.0199771961682
0.18	0.00654645019677	0.0197510523182
0.2	-0.0321345810225	0.0200069336264
0.22	-0.0321345810225	0.0206496252469
0.24	-0.061294127634	0.0215839123334
0.26	-0.0714107050298	0.0229109606601
0.28	-0.100570251641	0.0246307702268
0.3	-0.0809321896377	0.0264457946396
0.32	-0.0321345810225	0.0275764623462
0.34	0.0160679348046	0.0277371288084
0.36	0.0553440588119	0.0270230088722
0.38	0.0743870280276	0.0257256980038
0.4	0.0845036054234	0.0241367916693
0.42	0.0553440588119	0.0227383150269
0.44	0.00654645019677	0.0221194099368
0.46	-0.0517726430262	0.0225716718651
0.48	-0.0910487670335	0.0239998859657
0.5	-0.0809321896377	0.0257196955325
0.52	-0.0422511584184	0.026951529013
0.54	-0.00297503441107	0.0274037909413
0.56	0.0452274814161	0.0269812664713
0.58	0.0845036054234	0.0256839556029
0.6	0.0845036054234	0.0239938834944
0.62	0.0452274814161	0.022696572626
0.64	-0.0130916118069	0.0223752139299
0.66	-0.0321345810225	0.0228274758582
0.68	-0.0422511584184	0.0235713332526
0.7	-0.0321345810225	0.024315190647
0.72	0.00654645019677	0.0245710719553
0.74	0.0357059968082	0.0241485474852
0.76	0.0845036054234	0.0229464514629
0.78	0.142822698646	0.0206731884222
0.8	0.230301338481	0.0169419480509
0.82	0.317779978315	0.011461134883
0.84	0.385620556146	0.00442712953838
0.86	0.454056226765	-0.00396963829073
0.88	0.512375319988	-0.0136339537583
0.9	0.531418289203	-0.0240718898502
0.92	0.551056351207	-0.0348966362543
0.94	0.541534866599	-0.0458225484323
0.96	0.551056351207	-0.0567484606104
0.98	0.551056351207	-0.0677695876345
1	0.551056351207	-0.0787907146587
1.02	0.560577835815	-0.0899070565289
1.04	0.589737382426	-0.101410208711
1.06	0.599853959822	-0.113306122134
1.08	0.589737382426	-0.125202035556
1.1	0.580215897819	-0.136901568359
1.12	0.580215897819	-0.148505886315
1.14	0.551056351207	-0.159818608805
1.16	0.551056351207	-0.170839735829
1.18	0.580215897819	-0.18215245832
1.2	0.589737382426	-0.193851991122
1.22	0.580215897819	-0.205551523925
1.24	0.551056351207	-0.216864246415
1.26	0.521896804596	-0.227593777973
1.28	0.502258742592	-0.237835333445
1.3	0.492737257984	-0.247785293451
1.32	0.483215773376	-0.257544823764
1.34	0.463577711373	-0.267012758612
1.36	0.463577711373	-0.276284312839
1.38	0.47309919598	-0.285651081913
1.4	0.483215773376	-0.295214231606
1.42	0.492737257984	-0.30497376192
1.44	0.521896804596	-0.315120102546
1.46	0.531418289203	-0.325653253484
1.48	0.531418289203	-0.336281619268
1.5	0.541534866599	-0.347011150826
1.52	0.531418289203	-0.357740682384
1.54	0.512375319988	-0.368178618476
1.56	0.502258742592	-0.378324959101
1.58	0.521896804596	-0.388566514573
1.6	0.521896804596	-0.399004450665
1.62	0.47309919598	-0.408954410671
1.64	0.434418164761	-0.418029584278
1.66	0.36657758693	-0.426039541795
1.68	0.327301462923	-0.432978332294
1.7	0.288620431704	-0.43913755124
1.72	0.239822823089	-0.444421983788
1.74	0.181503729866	-0.448635249318
1.76	0.123184636643	-0.451682132983
1.78	0.0357059968082	-0.453271039317
1.8	-0.0321345810225	-0.453306753475
1.82	-0.100570251641	-0.451979705148
1.84	-0.178527406868	-0.449188728563
1.86	-0.266006046702	-0.444743394028
1.88	-0.333846624533	-0.438744867315
1.9	-0.392165717756	-0.431484743892
1.92	-0.401687202364	-0.423546214691
1.94	-0.401687202364	-0.415512470644
1.96	-0.41180377976	-0.407377560823
1.98	-0.440963326371	-0.398849889761
2	-0.460006295587	-0.389840193542
2.02	-0.479644357591	-0.38044368701
2.04	-0.489165842198	-0.370755585012
2.06	-0.489165842198	-0.360972268168
2.08	-0.528441966206	-0.350796190084
2.1	-0.557601512817	-0.339935755294
2.12	-0.567122997425	-0.328688510191
2.14	-0.606399121432	-0.316953289003
2.16	-0.61592060604	-0.304730091728
2.18	-0.606399121432	-0.292506894453
2.2	-0.606399121432	-0.280378912025
2.22	-0.606399121432	-0.268250929596
2.24	-0.606399121432	-0.256122947168
2.26	-0.606399121432	-0.243994964739
2.28	-0.606399121432	-0.23186698231
2.3	-0.596282544037	-0.219840165656
2.32	-0.606399121432	-0.207813349001
2.34	-0.606399121432	-0.195685366572
2.36	-0.61592060604	-0.183462169297
2.38	-0.625442090648	-0.171048542331
2.4	-0.606399121432	-0.15873013021
2.42	-0.606399121432	-0.146602147781
2.44	-0.586761059429	-0.134670545973
2.46	-0.577239574821	-0.12303053963
2.48	-0.577239574821	-0.111485748134
2.5	-0.577239574821	-0.0999409566372
2.52	-0.567122997425	-0.0884973309148
2.54	-0.557601512817	-0.0772500858123
2.56	-0.537963450814	-0.066294436176
2.58	-0.528441966206	-0.0556303820058
2.6	-0.51832538881	-0.0451627084557
2.62	-0.508803904202	-0.0348914155256
2.64	-0.528441966206	-0.0245189568215
2.66	-0.537963450814	-0.0138549026513
2.68	-0.537963450814	-0.003095633635
2.7	-0.537963450814	0.00766363538128
2.72	-0.51832538881	0.0182265237775
2.74	-0.508803904202	0.0284978167076
2.76	-0.489165842198	0.0384775141716
2.78	-0.470122872983	0.0480704013235
2.8	-0.450484810979	0.0572764781631
2.82	-0.460006295587	0.0663813892287
2.84	-0.440963326371	0.0753910854483
2.86	-0.430846748975	0.0841091862018
2.88	-0.450484810979	0.0929225018013
2.9	-0.450484810979	0.101932198021
2.92	-0.450484810979	0.11094189424
2.94	-0.450484810979	0.11995159046
2.96	-0.41180377976	0.128574476367
2.98	-0.392165717756	0.136614171343
3	-0.392165717756	0.144457485698
3.02	-0.382644233148	0.152205585207
3.04	-0.372527655752	0.159757304096
3.06	-0.372527655752	0.167207857211
3.08	-0.382644233148	0.1747595761
3.1	-0.382644233148	0.182412460763
3.12	-0.382644233148	0.190065345426
3.14	-0.382644233148	0.197718230089
3.16	-0.363006171145	0.205174734132
3.18	-0.363006171145	0.212434857555
3.2	-0.353484686537	0.219599766131
3.22	-0.343368109141	0.226568294088
3.24	-0.31420856253	0.233144060805
3.26	-0.295165593314	0.239237802363
3.28	-0.285049015918	0.245039948456
3.3	-0.27552753131	0.250645713928
3.32	-0.295165593314	0.256352645174
3.34	-0.304687077922	0.262351171886
3.36	-0.333846624533	0.268736508911
3.38	-0.333846624533	0.275413441402
3.4	-0.333846624533	0.282090373892
3.42	-0.324325139925	0.288672091537
3.44	-0.31420856253	0.295057428561
3.46	-0.295165593314	0.30115117012
3.48	-0.27552753131	0.306858101366
3.5	-0.255889469307	0.312172271372
3.52	-0.226729922695	0.316998465292
3.54	-0.226729922695	0.321533063746
3.56	-0.217208438087	0.325972447354
3.58	-0.207686953479	0.33022140127
3.6	-0.197570376084	0.334273974565
3.62	-0.178527406868	0.338034952395
3.64	-0.139251282861	0.341212739292
3.66	-0.110091736249	0.343706169483
3.68	-0.0809321896377	0.345616408742
3.7	-0.0321345810225	0.346747076449
3.72	0.0160679348046	0.346907742911
3.74	0.0357059968082	0.346390003595
3.76	0.0452274814161	0.345580668813
3.78	0.0553440588119	0.34457495341
3.8	0.0743870280276	0.343277642542
3.82	0.0845036054234	0.341688736207
3.84	0.113663152035	0.339707068633
3.86	0.0648655434197	0.337921781678
3.88	0.00654645019677	0.337207661742
3.9	-0.110091736249	0.338243114603
3.92	-0.207686953479	0.3414209015
3.94	-0.266006046702	0.346157831502
3.96	-0.27552753131	0.351573167282
3.98	-0.266006046702	0.356988503062
4	-0.226729922695	0.361915862756
4.02	-0.178527406868	0.365968436051
4.04	-0.100570251641	0.368759412637
4.06	-0.00297503441107	0.369794865497
4.08	0.0845036054234	0.368979579787
4.1	0.161865667862	0.366515887054
4.12	0.191025214473	0.362986978231
4.14	0.230301338481	0.358773712701
4.16	0.2689823697	0.353780875619
4.18	0.298141916312	0.348109632759
4.2	0.336822947531	0.341759984121
4.22	0.346939524927	0.334922359396
4.24	0.385620556146	0.327596758586
4.26	0.434418164761	0.319396371377
4.28	0.463577711373	0.310416412615
4.3	0.483215773376	0.300948477768
4.32	0.521896804596	0.290897351988
4.34	0.551056351207	0.28016782043
4.36	0.589737382426	0.268759883094
4.38	0.589737382426	0.256965135445
4.4	0.599853959822	0.245069222023
4.42	0.599853959822	0.233072142826
4.44	0.618896929038	0.220884633938
4.46	0.618896929038	0.208506695357
4.48	0.618896929038	0.196128756776
4.5	0.618896929038	0.183750818195
4.52	0.60937544443	0.171468094461
4.54	0.60937544443	0.159280585572
4.56	0.599853959822	0.147188291529
4.58	0.60937544443	0.135095997487
4.6	0.60937544443	0.122908488598
4.62	0.638534991042	0.110429384244
4.64	0.658173053045	0.0974623038028
4.66	0.648056475649	0.0844000085158
4.68	0.629013506434	0.071629308695
4.7	0.618896929038	0.0591502043403
4.72	0.618896929038	0.0467722657595
4.74	0.618896929038	0.0343943271788
4.76	0.618896929038	0.022016388598
4.78	0.629013506434	0.00953728424327
4.8	0.638534991042	-0.00313820073149
4.82	0.648056475649	-0.0160041153984
4.84	0.667694537653	-0.0291616255314
4.86	0.677216022261	-0.0426107311306
4.88	0.677216022261	-0.0561550515758
4.9	0.706375568872	-0.0699909674871
4.92	0.706375568872	-0.0841184788645
4.94	0.706375568872	-0.098245990242
4.96	0.716492146268	-0.112474667393
4.98	0.726013630876	-0.126899725165
5	0.735535115484	-0.141515212628
5.02	0.735535115484	-0.156225914938
5.04	0.706375568872	-0.170645021782
5.06	0.687332599657	-0.184582103467
5.08	0.638534991042	-0.197840779374
5.1	0.589737382426	-0.210123503109
5.12	0.551056351207	-0.221531440445
5.14	0.512375319988	-0.232165757157
5.16	0.483215773376	-0.242121668091
5.18	0.414780102758	-0.251101626852
5.2	0.376099071538	-0.259010418595
5.22	0.327301462923	-0.266044423939
5.24	0.298141916312	-0.272298857732
5.26	0.278503854308	-0.278065315438
5.28	0.220184761085	-0.283052201592
5.3	0.181503729866	-0.287069086501
5.32	0.132706121251	-0.290211185013
5.34	0.0845036054234	-0.292383282279
5.36	0.0261845122004	-0.293490163456
5.38	-0.0321345810225	-0.293430662767
5.4	-0.100570251641	-0.292103614441
5.42	-0.168410829472	-0.28941380363
5.44	-0.255889469307	-0.285170800642
5.46	-0.372527655752	-0.278886629391
5.48	-0.479644357591	-0.270364909258
5.5	-0.586761059429	-0.259700855088
5.52	-0.683761183871	-0.246995632655
5.54	-0.75219685449	-0.232636052271
5.56	-0.839675494324	-0.216717328783
5.58	-0.897994587547	-0.199340627964
5.6	-0.927154134159	-0.181089140747
5.62	-0.946197103374	-0.162355628372
5.64	-0.936675618766	-0.14352690115
5.66	-0.95631368077	-0.124597008155
5.68	-0.946197103374	-0.105571900314
5.7	-0.936675618766	-0.0867431730922
5.72	-0.927154134159	-0.0681048755629
5.74	-0.917037556763	-0.0496629586537
5.76	-0.897994587547	-0.0315126372106
5.78	-0.917037556763	-0.0133623157675
5.8	-0.878356525543	0.00459162505558
5.82	-0.868835040936	0.0220635407204
5.84	-0.839675494324	0.039148646073
5.86	-0.820037432321	0.0557457753394
5.88	-0.800399370317	0.0719501433658
5.9	-0.761718339098	0.0875713204599
5.92	-0.761718339098	0.102805687242
5.94	-0.712920730482	0.117552077938
5.96	-0.674239699263	0.131423682235
5.98	-0.664718214655	0.144813261374
6	-0.693877761267	0.158399221134
6.02	-0.693877761267	0.172276776359
6.04	-0.683761183871	0.18605316581
6.06	-0.683761183871	0.199728389488
6.08	-0.674239699263	0.213308398319
6.1	-0.674239699263	0.226793192304
6.12	-0.664718214655	0.240182771443
6.14	-0.654601637259	0.253375969963
6.16	-0.625442090648	0.266176407242
6.18	-0.606399121432	0.278494819362
6.2	-0.557601512817	0.290134825705
6.22	-0.489165842198	0.300602499255
6.24	-0.450484810979	0.309999005787
6.26	-0.401687202364	0.31852072592
6.28	-0.372527655752	0.326262874501
6.3	-0.372527655752	0.333713427617
6.32	-0.382644233148	0.341265146506
6.34	-0.41180377976	0.349209626635
6.36	-0.430846748975	0.357636131922
6.38	-0.41180377976	0.366062637209
6.4	-0.401687202364	0.374197547031
6.42	-0.333846624533	0.3815528853
6.44	-0.226729922695	0.387158650772
6.46	-0.110091736249	0.390526867361
6.48	-0.00297503441107	0.391657535068
6.5	0.0845036054234	0.390842249358
6.52	0.132706121251	0.388670152091
6.54	0.152344183254	0.385819649046
6.56	0.161865667862	0.382677550535
6.58	0.201141791869	0.379047475937
6.6	0.239822823089	0.374637829788
6.62	0.2689823697	0.36954977786
6.64	0.298141916312	0.363878535
6.66	0.327301462923	0.357624101208
6.68	0.346939524927	0.350881691329
6.7	0.395737133542	0.343454924744
6.72	0.40525861815	0.335444967227
6.74	0.443939649369	0.326952984552
6.76	0.502258742592	0.317491000633
6.78	0.551056351207	0.306957849695
6.8	0.599853959822	0.295448746584
6.82	0.638534991042	0.283064857076
6.84	0.667694537653	0.270002561789
6.86	0.667694537653	0.256648671036
6.88	0.677216022261	0.243199565437
6.9	0.677216022261	0.229655244991
6.92	0.667694537653	0.216206139392
6.94	0.648056475649	0.203048629259
6.96	0.648056475649	0.190087499746
6.98	0.638534991042	0.177221585079
7	0.658173053045	0.164254504638
7.02	0.638534991042	0.151287424198
7.04	0.60937544443	0.138808319843
7.06	0.580215897819	0.12691240642
7.08	0.551056351207	0.11559968393
7.1	0.541534866599	0.104673771752
7.12	0.541534866599	0.09384307442
7.14	0.570694413211	0.0827207816219
7.16	0.60937544443	0.0709200830455
7.18	0.638534991042	0.0584409786908
7.2	0.667694537653	0.0453786834038
7.22	0.677216022261	0.0319295778047
7.24	0.696854084264	0.0181888767394
7.26	0.706375568872	0.00415658020808
7.28	0.706375568872	-0.00997093116936
7.3	0.706375568872	-0.0240984425468
7.32	0.706375568872	-0.0382259539242
7.34	0.687332599657	-0.0521630356095
7.36	0.677216022261	-0.0658085218287
7.38	0.687332599657	-0.0794540080479
7.4	0.696854084264	-0.0932958748871
7.42	0.706375568872	-0.107328171418
7.44	0.687332599657	-0.121265253104
7.46	0.658173053045	-0.134720309631
7.48	0.658173053045	-0.147883770692
7.5	0.638534991042	-0.160850851133
7.52	0.638534991042	-0.173621550953
7.54	0.658173053045	-0.186588631394
7.56	0.638534991042	-0.199555711835
7.58	0.638534991042	-0.212326411656
7.6	0.638534991042	-0.225097111477
7.62	0.648056475649	-0.237963026144
7.64	0.658173053045	-0.251025321431
7.66	0.658173053045	-0.264188782492
7.68	0.658173053045	-0.277352243552
7.7	0.648056475649	-0.290414538839
7.72	0.638534991042	-0.303280453506
7.74	0.589737382426	-0.315563177241
7.76	0.551056351207	-0.326971114577
7.78	0.512375319988	-0.337605431289
7.8	0.424896680153	-0.346978151291
7.82	0.317779978315	-0.354404917875
7.84	0.191025214473	-0.359492969803
7.86	0.0357059968082	-0.361760281916
7.88	-0.139251282861	-0.360724829056
7.9	-0.31420856253	-0.356190230602
7.92	-0.508803904202	-0.347960105934
7.94	-0.664718214655	-0.336224884746
7.96	-0.800399370317	-0.321573708896
7.98	-0.887878010151	-0.304690935091
8	-1.00511128939	-0.285761042096
8.02	-1.0437923206	-0.265272005996
8.04	-1.01463277399	-0.24468775505
8.06	-1.07295186722	-0.223811908638
8.08	-1.05331380521	-0.202549251914
8.1	-1.0437923206	-0.181578190656
8.12	-1.00511128939	-0.161089154556
8.14	-0.985473227382	-0.141183309388
8.16	-1.00511128939	-0.12127746422
8.18	-1.0241542586	-0.10098480874
8.2	-0.994994711989	-0.0807933190345
8.22	-1.01463277399	-0.0606970441747
8.24	-0.965835165378	-0.040892364781
8.26	-0.95631368077	-0.0216708763195
8.28	-0.965835165378	-0.00244938785804
