"Latest: Tiempo (s)","Latest: Tasa de Flujo (L/s)","Latest: Volumen (L)"
0,-0.0517726412654,-0
0.01,-0.0803370950889,0.000660548681772
0.02,-0.0993800643046,0.00155913447874
0.03,-0.108901548912,0.00260054254482
0.04,-0.0993800643046,0.0036419506109
0.05,-0.0803370950889,0.00454053640787
0.06,-0.0803370950889,0.00534390735876
0.07,-0.0612941258732,0.00605206346357
0.08,-0.0422511566576,0.00656978987623
0.09,-0.0232081874419,0.00689708659672
0.1,-0.0136867028341,0.0070815610481
0.11,-0.0232081874419,0.00726603549948
0.12,-0.00476031101425,0.00740587799176
0.13,-0.00476031101425,0.00745348110191
0.14,-0.00476031101425,0.00750108421205
0.15,-0.00476031101425,0.00754868732219
0.16,-0.0136867028341,0.00764092239143
0.17,-0.00476031101425,0.00773315746068
0.18,-0.00476031101425,0.00778076057082
0.19,0.00476117359358,0.00778075625792
0.2,0.0142826582014,0.00768553709895
0.21,0.00476117359358,0.00759031793997
0.22,0.00476117359358,0.00754270620404
0.23,-0.0136867028341,0.00758733385024
0.24,-0.0136867028341,0.00772420087858
0.25,-0.0136867028341,0.00786106790692
0.26,-0.0232081874419,0.0080455423583
0.27,-0.0327296720498,0.00832523165576
0.28,-0.0327296720498,0.00865252837626
0.29,-0.0327296720498,0.00897982509675
0.3,-0.0327296720498,0.00930712181725
0.31,-0.0422511566576,0.00968202596079
0.32,-0.0422511566576,0.0101045375274
0.33,-0.0803370950889,0.0107174787861
0.34,-0.0898585796967,0.01156845716
0.35,-0.0993800643046,0.01251465038
0.36,-0.127944518128,0.0136512732922
0.37,-0.127944518128,0.0149307184735
0.38,-0.127944518128,0.0162101636548
0.39,-0.137466002736,0.0175372162591
0.4,-0.156508971952,0.0190070911325
0.41,-0.156508971952,0.020572180852
0.42,-0.137466002736,0.0220420557255
0.43,-0.146987487344,0.0234643231759
0.44,-0.156508971952,0.0249818054724
0.45,-0.156508971952,0.0265468951919
0.46,-0.166030456559,0.0281595923344
0.47,-0.156508971952,0.029772289477
0.48,-0.146987487344,0.0312897717735
0.49,-0.156508971952,0.0328072540699
0.5,-0.194594910383,0.0345627734816
0.51,-0.25172381803,0.0367943671237
0.52,-0.270766787246,0.0394068201501
0.53,-0.270766787246,0.0421144880225
0.54,-0.270766787246,0.044822155895
0.55,-0.242202333422,0.0473870014983
0.56,-0.213637879599,0.0496662025634
0.57,-0.166030456559,0.0515645442442
0.58,-0.127944518128,0.0530344191177
0.59,-0.0803370950889,0.0540758271837
0.6,-0.0612941258732,0.0547839832886
0.61,-0.0517726412654,0.0553493171242
0.62,-0.0612941258732,0.0559146509599
0.63,-0.0803370950889,0.0566228070647
0.64,-0.11842303352,0.0576166077078
0.65,-0.137466002736,0.0588960528891
0.66,-0.175551941167,0.0604611426086
0.67,-0.194594910383,0.0623118768663
0.68,-0.232680848814,0.0644482556623
0.69,-0.261245302638,0.0669178864196
0.7,-0.270766787246,0.069577946869
0.71,-0.270766787246,0.0722856147415
0.72,-0.270766787246,0.0749932826139
0.73,-0.270766787246,0.0777009504864
0.74,-0.25172381803,0.0803134035128
0.75,-0.232680848814,0.082735426847
0.76,-0.232680848814,0.0850622353351
0.77,-0.213637879599,0.0872938289772
0.78,-0.213637879599,0.0894302077732
0.79,-0.204116394991,0.0915189791461
0.8,-0.213637879599,0.0936077505191
0.81,-0.232680848814,0.0958393441611
0.82,-0.270766787246,0.0983565823414
0.83,-0.299331241069,0.101207072483
0.84,-0.34634357132,0.104435446545
0.85,-0.393950994359,0.108136919373
0.86,-0.47964435583,0.112504896124
0.87,-0.584380686516,0.117825021336
0.88,-0.698043409022,0.124237141814
0.89,-0.821822708924,0.131836472403
0.9,-0.955123493433,0.140721203415
0.91,-1.10687215437,0.151031181654
0.92,-1.29730184653,0.163052051659
0.93,-1.45857199207,0.176831420852
0.94,-1.62043723041,0.192226466964
0.95,-1.79122886056,0.209284797419
0.96,-1.93405112968,0.22791119737
0.97,-2.07627830601,0.247962844549
0.98,-2.1905361213,0.269296916685
0.99,-2.32324181302,0.291865806357
1,-2.46606408214,0.315812335833
1.01,-2.56127892822,0.340949050884
1.02,-2.6463771969,0.36698733151
1.03,-2.72254907376,0.393831962863
1.04,-2.7701564968,0.421295490716
1.05,-2.78919946602,0.44909227053
1.06,-2.84632837366,0.477269909729
1.07,-2.90345728131,0.506018838003
1.08,-2.8939357967,0.535005803394
1.09,-2.90345728131,0.563992768784
1.1,-2.92250025053,0.593122556443
1.11,-2.92250025053,0.622347558948
1.12,-2.90345728131,0.651477346607
1.13,-2.97903406539,0.680889803341
1.14,-2.96951258078,0.710632536572
1.15,-3.00759851921,0.740518092072
1.16,-3.00759851921,0.770594077264
1.17,-3.04568445764,0.800860492148
1.18,-3.04568445764,0.831317336724
1.19,-3.05520594225,0.861821788724
1.2,-3.05520594225,0.892373848146
1.21,-2.95999109617,0.922449833338
1.22,-2.82728540445,0.951386215841
1.23,-2.78919946602,0.979468640194
1.24,-2.7701564968,1.00726542001
1.25,-2.65589868151,1.0343956959
1.26,-2.62733422768,1.06081186045
1.27,-2.60829125847,1.08698998788
1.28,-2.53271447439,1.11269501654
1.29,-2.49462853596,1.13783173159
1.3,-2.42797814371,1.16244476499
1.31,-2.33276329763,1.1862484722
1.32,-2.23814354434,1.20910300641
1.33,-2.13340721365,1.2309607602
1.34,-2.04771385218,1.25186636553
1.35,-1.91500816046,1.27167997559
1.36,-1.79122886056,1.29021116069
1.37,-1.68649252987,1.30759976765
1.38,-1.57282980737,1.32389637933
1.39,-1.43952902286,1.33895817348
1.4,-1.35383566139,1.35292499691
1.41,-1.23065145427,1.36584743248
1.42,-1.1449580928,1.37772548022
1.43,-1.04022176212,1.38865137949
1.44,-0.945602008826,1.39858049835
1.45,-0.840865678139,1.40751283678
1.46,-0.726607862845,1.41535020449
1.47,-0.5653377173,1.42180993239
1.48,-0.403472478967,1.42665398337
1.49,-0.213637879599,1.42973953516
1.5,0.0238041428092,1.43068870385
1.51,0.290405711828,1.42911765457
1.52,0.537369218844,1.42497877992
1.53,0.746246787428,1.41856069989
1.54,0.889069056546,1.41038412067
1.55,1.00273177905,1.40092511649
1.56,1.01225326366,1.39085019128
1.57,1.23124740964,1.37963268791
1.58,1.30682419371,1.36694232989
1.59,1.43060349362,1.35325519146
1.6,1.51629685509,1.33852068971
1.61,1.6394810622,1.32274180013
1.62,1.71565293906,1.30596613012
1.63,1.74421739289,1.28866677846
1.64,1.82038926975,1.27084374515
1.65,1.89656114661,1.25225899307
1.66,2.01022386912,1.23272506799
1.67,2.04830980755,1.2124323996
1.68,2.04830980755,1.19194930153
1.69,2.1054387152,1.17118055892
1.7,2.09591723059,1.15017377919
1.71,2.09591723059,1.12921460688
1.72,2.05783129216,1.10844586427
1.73,2.06735277676,1.08781994392
1.74,2.05783129216,1.06719402358
1.75,2.01022386912,1.04685374777
1.76,2.06735277676,1.02646586454
1.77,2.03878832294,1.00593515904
1.78,2.02926683833,0.985594883237
1.79,2.01022386912,0.9653974297
1.8,1.96261644608,0.945533228124
1.81,1.93464708504,0.926046910468
1.82,1.89656114661,0.90689086931
1.83,1.91560411583,0.887830042998
1.84,1.89656114661,0.868769216685
1.85,1.85847520818,0.849994034911
1.86,1.82038926975,0.831599712522
1.87,1.82038926975,0.813395819824
1.88,1.81086778514,0.79523953455
1.89,1.84895372357,0.776940427006
1.9,1.82038926975,0.75859371204
1.91,1.80134630053,0.740485034188
1.92,1.79182481593,0.722519178606
1.93,1.74421739289,0.704838967562
1.94,1.74421739289,0.687396793633
1.95,1.68708848524,0.670240264242
1.96,1.64900254681,0.653559809082
1.97,1.62043809298,0.637212605883
1.98,1.59246873195,0.621148071758
1.99,1.59246873195,0.605223384439
2,1.55438279352,0.589489126812
2.01,1.52581833969,0.574088121146
2.02,1.55438279352,0.55868711548
2.03,1.51629685509,0.543333717236
2.04,1.46868943205,0.528408785801
2.05,1.47821091666,0.513674284057
2.06,1.44012497822,0.499082604583
2.07,1.40203903979,0.484871784493
2.08,1.38299607058,0.470946608941
2.09,1.39251755518,0.457069040812
2.1,1.34491013215,0.443381902375
2.11,1.31634567832,0.430075623323
2.12,1.2877812245,0.417054988809
2.13,1.2877812245,0.404177176564
2.14,1.24076889425,0.39153442597
2.15,1.19316147121,0.379364774143
2.16,1.14555404817,0.367671196546
2.17,1.09794662513,0.35645369318
2.18,1.05033920209,0.345712264043
2.19,1.02177474827,0.335351694292
2.2,0.974167325228,0.325371983924
2.21,0.955719448801,0.315722550054
2.22,0.946197964193,0.306212962989
2.23,0.927154994977,0.296846198193
2.24,0.908112025762,0.28766986309
2.25,0.917633510369,0.278541135409
2.26,0.898590541154,0.269460015151
2.27,0.898590541154,0.26047410974
2.28,0.889069056546,0.251535811751
2.29,0.889069056546,0.242645121186
2.3,0.860504602722,0.233897252889
2.31,0.860504602722,0.225292206862
2.32,0.803375695075,0.216972805373
2.33,0.765289756644,0.209129478115
2.34,0.679596395174,0.201905047356
2.35,0.594498126491,0.195534574747
2.36,0.470718826589,0.190208489982
2.37,0.309448681044,0.186307652444
2.38,0.0904545350641,0.184308136363
2.39,-0.156508971952,0.184638408548
2.4,-0.451079902006,0.187676352917
2.41,-0.802779739708,0.193945651126
2.42,-1.06878621594,0.203303480904
2.43,-1.24969442349,0.214895884101
2.44,-1.29730184653,0.227630865451
2.45,-1.41096456903,0.241172197529
2.46,-1.56330832276,0.256043561988
2.47,-1.63888510683,0.272054529136
2.48,-1.73409995291,0.288919454435
2.49,-1.82931479899,0.306736528194
2.5,-1.93405112968,0.325553357838
2.51,-1.96202049071,0.34503371594
2.52,-2.03819236757,0.365034780231
2.53,-2.08579979061,0.385654741022
2.54,-2.11436424444,0.406655561197
2.55,-2.14292869826,0.427942025911
2.56,-2.11436424444,0.449228490624
2.57,-2.10484275983,0.470324525645
2.58,-2.09532127522,0.491325345821
2.59,-2.05723533679,0.512088128881
2.6,-2.00010642914,0.53237483771
2.61,-1.96202049071,0.55218547231
2.62,-1.94357261428,0.571713437835
2.63,-1.89596519124,0.590911126862
2.64,-1.91500816046,0.609965993621
2.65,-1.93405112968,0.629211290071
2.66,-1.96202049071,0.648691648173
2.67,-1.93405112968,0.668172006275
2.68,-1.90548667585,0.687369695303
2.69,-1.93405112968,0.706567384331
2.7,-1.93405112968,0.725907895627
2.71,-1.91500816046,0.745153192078
2.72,-1.91500816046,0.764303273683
2.73,-1.94357261428,0.783596177556
2.74,-1.91500816046,0.80288908143
2.75,-1.91500816046,0.822039163035
2.76,-1.88644370664,0.84104642237
2.77,-1.84835776821,0.859720429744
2.78,-1.82931479899,0.87810879258
2.79,-1.79122886056,0.896211510878
2.8,-1.81027182977,0.91421901433
2.81,-1.75314292213,0.932036088089
2.82,-1.74362143752,0.949519909888
2.83,-1.76266440673,0.967051339109
2.84,-1.74362143752,0.98458276833
2.85,-1.65792807605,1.0015905159
2.86,-1.62995871501,1.01802994985
2.87,-1.6109157458,1.03423432216
2.88,-1.6109157458,1.05034347962
2.89,-1.62043723041,1.0665002445
2.9,-1.54426535354,1.08232375742
2.91,-1.4871364459,1.09748076641
2.92,-1.45857199207,1.1122093086
2.93,-1.42048605364,1.12660459883
2.94,-1.33479269217,1.14038099256
2.95,-1.24969442349,1.15330342814
2.96,-1.17352254663,1.16541951299
2.97,-1.08782918515,1.17672627165
2.98,-0.945602008826,1.18689342762
2.99,-0.783736770492,1.19554012152
3,-0.584380686516,1.2023807088
3.01,-0.318374210285,1.20689448328
3.02,-0.0517726412654,1.20874521754
3.03,0.233276804182,1.20783769673
3.04,0.575455157275,1.20379403692
3.05,0.879547571938,1.19651902327
3.06,1.12651107895,1.18648873002
3.07,1.2877812245,1.1744172685
3.08,1.39251755518,1.1610157746
3.09,1.54486130891,1.14632888028
3.1,1.62043809298,1.13050238327
3.11,1.68708848524,1.11396475038
3.12,1.75373887749,1.09676061357
3.13,1.78230333132,1.07908040253
3.14,1.81086778514,1.06111454694
3.15,1.82038926975,1.04295826167
3.16,1.82038926975,1.02475436897
3.17,1.80134630053,1.00664569112
3.18,1.77278184671,0.988775050383
3.19,1.78230333132,0.970999624493
3.2,1.75373887749,0.953319413449
3.21,1.71565293906,0.935972454366
3.22,1.71565293906,0.918815924976
3.23,1.71565293906,0.901659395585
3.24,1.69660996985,0.884598081041
3.25,1.69660996985,0.867631981342
3.26,1.64900254681,0.850903918759
3.27,1.62043809298,0.83455671556
3.28,1.62995957759,0.818304727207
3.29,1.61091660838,0.802100346277
3.3,1.60199021656,0.786035812152
3.31,1.60199021656,0.770015909987
3.32,1.55438279352,0.754234044936
3.33,1.55438279352,0.738690217001
3.34,1.50677537048,0.723384426181
3.35,1.49725388587,0.708364279899
3.36,1.45916794744,0.693582170733
3.37,1.43060349362,0.679133313528
3.38,1.43060349362,0.664827278591
3.39,1.4115605244,0.650616458501
3.4,1.40203903979,0.63654846068
3.41,1.39251755518,0.622575677706
3.42,1.38299607058,0.608698109577
3.43,1.38299607058,0.594868148871
3.44,1.39251755518,0.580990580742
3.45,1.35443161675,0.567255834882
3.46,1.33538864754,0.553806733561
3.47,1.30682419371,0.540595669355
3.48,1.30682419371,0.527527427418
3.49,1.2877812245,0.514554400327
3.5,1.27885483268,0.501721220041
3.51,1.26933334807,0.488980279137
3.52,1.2877812245,0.476194706274
3.53,1.2877812245,0.463316894029
3.54,1.27885483268,0.450483713743
3.55,1.2877812245,0.437650533457
3.56,1.2877812245,0.424772721212
3.57,1.26933334807,0.411987148349
3.58,1.25029037886,0.399389029715
3.59,1.27885483268,0.386743303657
3.6,1.2877812245,0.373910123371
3.61,1.25029037886,0.361219765354
3.62,1.21220444042,0.348907291258
3.63,1.1836399866,0.336928069123
3.64,1.15507553278,0.325234491526
3.65,1.10746810974,0.313921773313
3.66,1.03129623288,0.3032279516
3.67,0.946197964193,0.293340480615
3.68,0.87002608733,0.284259360357
3.69,0.78433272586,0.275987566291
3.7,0.623062580315,0.268950589761
3.71,0.480240311197,0.263434075303
3.72,0.290405711828,0.259580845188
3.73,0.0714115658484,0.257771758799
3.74,-0.175551941167,0.258292460676
3.75,-0.441558417398,0.261378012469
3.76,-0.688521924414,0.267028414178
3.77,-0.888473101179,0.274913389306
3.78,-1.04974324672,0.284604471045
3.79,-1.19256551584,0.295816014858
3.8,-1.2687373927,0.308122529401
3.81,-1.42048605364,0.321568646633
3.82,-1.50617941511,0.336201973976
3.83,-1.63888510683,0.351927296586
3.84,-1.76266440673,0.368935044154
3.85,-1.85787925281,0.387037762452
3.86,-1.98106345993,0.406232476015
3.87,-2.04771385218,0.426376362576
3.88,-2.10484275983,0.447139145636
3.89,-2.18101463669,0.468568432618
3.9,-2.20957909052,0.490521401254
3.91,-2.1905361213,0.512521977314
3.92,-2.1905361213,0.534427338527
3.93,-2.26670799816,0.556713559124
3.94,-2.24766502895,0.579285424259
3.95,-2.20005760591,0.601524037434
3.96,-2.20957909052,0.623572220916
3.97,-2.16197166748,0.645429974706
3.98,-2.16197166748,0.667049691381
3.99,-2.0667568214,0.688193333825
4,-2.05723533679,0.708813294616
4.01,-2.03819236757,0.729290433138
4.02,-2.00962791375,0.749529534544
4.03,-2.00010642914,0.769578206259
4.04,-1.96202049071,0.789388840858
4.05,-1.93405112968,0.80886919896
4.06,-1.94357261428,0.82825731768
4.07,-1.92452964507,0.847597828977
4.08,-1.84835776821,0.866462266043
4.09,-1.86740073742,0.885041058571
4.1,-1.8388362836,0.903572243676
4.11,-1.86740073742,0.922103428781
4.12,-1.79122886056,0.940396576771
4.13,-1.78170737595,0.958261257954
4.14,-1.79122886056,0.976125939136
4.15,-1.73409995291,0.993752583204
4.16,-1.68649252987,1.01085554562
4.17,-1.64840659144,1.02753004122
4.18,-1.58235129197,1.04368383064
4.19,-1.55378683815,1.05936452129
4.2,-1.53474386894,1.07480717483
4.21,-1.50617941511,1.09001179125
4.22,-1.4871364459,1.10497837055
4.23,-1.44905050746,1.11965930532
4.24,-1.41096456903,1.1339593807
4.25,-1.35383566139,1.14778338185
4.26,-1.36335714599,1.16136934589
4.27,-1.34431417678,1.1749077025
4.28,-1.35383566139,1.1883984517
4.29,-1.33479269217,1.20184159346
4.3,-1.31574972295,1.21509430554
4.31,-1.24969442349,1.22792152627
4.32,-1.23065145427,1.24032325566
4.33,-1.23065145427,1.2526297702
4.34,-1.18304403123,1.26469824763
4.35,-1.15447957741,1.27638586567
4.36,-1.11639363898,1.28774023176
4.37,-1.07830770055,1.29871373845
4.38,-1.07830770055,1.30949681546
4.39,-1.0211787929,1.31999424793
4.4,-0.964644978041,1.32992336678
4.41,-0.897994585786,1.3392365646
4.42,-0.802779739708,1.34774043623
4.43,-0.688521924414,1.35519694455
4.44,-0.498687325045,1.36113299079
4.45,-0.327895694893,1.36526590589
4.46,-0.11842303352,1.36749749954
4.47,0.0618900812406,1.3677801643
4.48,0.280884227221,1.36606629276
4.49,0.470718826589,1.36230827749
4.5,0.623062580315,1.35683937045
4.51,0.765289756644,1.34989760877
4.52,0.860504602722,1.34176863697
4.53,0.927154994977,1.33283033898
4.54,1.01225326366,1.32313329769
4.55,1.11698959435,1.3124870834
4.56,1.21220444042,1.30084111322
4.57,1.2877812245,1.2883411849
4.58,1.39251755518,1.274939691
4.59,1.49725388587,1.2604908338
4.6,1.56390427813,1.24518504298
4.61,1.62995957759,1.2292157237
4.62,1.66804551602,1.21272569823
4.63,1.74421739289,1.19566438369
4.64,1.77278184671,1.17807938749
4.65,1.80134630053,1.16020874675
4.66,1.78230333132,1.14229049859
4.67,1.80134630053,1.12437225043
4.68,1.81086778514,1.10631118
4.69,1.82991075436,1.08810728731
4.7,1.85847520818,1.06966535749
4.71,1.89656114661,1.05089017572
4.72,1.887039662,1.03197217168
4.73,1.89656114661,1.01305416763
4.74,1.89656114661,0.994088556168
4.75,1.91560411583,0.975027729856
4.76,1.8775181774,0.95606211839
4.77,1.84895372357,0.937429758885
4.78,1.81086778514,0.919130651341
4.79,1.82038926975,0.900974366067
4.8,1.82038926975,0.882770473369
4.81,1.80134630053,0.864661795518
4.82,1.81086778514,0.84660072509
4.83,1.78230333132,0.828634869507
4.84,1.77278184671,0.810859443617
4.85,1.75373887749,0.793226839996
4.86,1.73469590828,0.775784666067
4.87,1.69660996985,0.758628136677
4.88,1.67756700063,0.741757251824
4.89,1.6394810622,0.72517201151
4.9,1.60199021656,0.708964655116
4.91,1.59246873195,0.692992360374
4.92,1.58294724734,0.677115280477
4.93,1.52581833969,0.661571452542
4.94,1.51629685509,0.646360876568
4.95,1.48773240126,0.631340730287
4.96,1.48773240126,0.616463406274
4.97,1.46868943205,0.601681297107
4.98,1.44964646283,0.587089617633
4.99,1.40203903979,0.57283119012
5,1.35443161675,0.559048836837
5.01,1.36395310136,0.545456913247
5.02,1.32586716293,0.532007811925
5.03,1.32586716293,0.518749140296
5.04,1.30682419371,0.505585683513
5.05,1.25981186346,0.492752503227
5.06,1.25981186346,0.480154384592
5.07,1.23124740964,0.467699088227
5.08,1.19316147121,0.455577043823
5.09,1.17411850199,0.443740643957
5.1,1.15507553278,0.432094673783
5.11,1.12651107895,0.420686740724
5.12,1.07890365591,0.40965966705
5.13,1.05033920209,0.39901345276
5.14,1.02177474827,0.388652883008
5.15,0.983688809836,0.378625565217
5.16,0.974167325228,0.368836284542
5.17,0.946197964193,0.359234458095
5.18,0.936676479585,0.349820085876
5.19,0.927154994977,0.340500928503
5.2,0.87002608733,0.331515023092
5.21,0.822418664291,0.323052799334
5.22,0.774811241252,0.315066649806
5.23,0.746246787428,0.307461359663
5.24,0.717682333605,0.300141714057
5.25,0.679596395174,0.293155320413
5.26,0.65103194135,0.286502178731
5.27,0.623062580315,0.280131706122
5.28,0.565933672668,0.274186724858
5.29,0.508804765021,0.268813032669
5.3,0.432632888158,0.264105844403
5.31,0.33741804208,0.260255589752
5.32,0.214233834966,0.257497330367
5.33,0.0904545350641,0.255973888517
5.34,-0.0422511566576,0.255732871625
5.35,-0.204116394991,0.256964709383
5.36,-0.365386540536,0.259812224061
5.37,-0.5653377173,0.26446584535
5.38,-0.736129347453,0.270973180673
5.39,-0.907516070394,0.279191407763
5.4,-1.04974324672,0.288977704348
5.41,-1.18304403123,0.300141640738
5.42,-1.2687373927,0.312400547858
5.43,-1.43000753825,0.325894272512
5.44,-1.60139426119,0.34105128151
5.45,-1.68649252987,0.357490715465
5.46,-1.85787925281,0.375212574378
5.47,-1.97154197532,0.394359680519
5.48,-2.09532127522,0.414693996772
5.49,-2.20957909052,0.4362184986
5.5,-2.34228478224,0.458977817964
5.51,-2.51367150518,0.483257599401
5.52,-2.68446313533,0.509248272604
5.53,-2.75111352759,0.536426155918
5.54,-2.84632837366,0.564413365425
5.55,-2.92250025053,0.593257508546
5.56,-3.00759851921,0.622908002394
5.57,-3.05520594225,0.653222024702
5.58,-3.13137781911,0.684154943508
5.59,-3.1218563345,0.715421114276
5.6,-3.2456356344,0.747258574121
5.61,-3.3497768723,0.780235636654
5.62,-3.33073390309,0.813638190531
5.63,-3.3497768723,0.847040744408
5.64,-3.34025538769,0.880490905708
5.65,-3.27360499544,0.913560207624
5.66,-3.21707118058,0.946013588504
5.67,-3.25515711901,0.978374730002
5.68,-3.35929835691,1.01144700738
5.69,-3.32121241848,1.04484956126
5.7,-3.41642726456,1.07853775967
5.71,-3.35929835691,1.11241638778
5.72,-3.28312648005,1.14562851197
5.73,-3.33073390309,1.17869781388
5.74,-3.31169093387,1.21190993807
5.75,-3.36881984152,1.24531249194
5.76,-3.45451320299,1.27942915717
5.77,-3.53068507985,1.31435514858
5.78,-3.48307765681,1.34942396226
5.79,-3.58721889471,1.38477544502
5.8,-3.50212062603,1.42022214262
5.81,-3.48307765681,1.45514813404
5.82,-3.51164211064,1.49012173288
5.83,-3.54972804907,1.52542858367
5.84,-3.63482631775,1.56135135551
5.85,-3.83477749451,1.59869937457
5.86,-3.86334194834,1.63718997178
5.87,-3.93891873241,1.67620127519
5.88,-3.87286343295,1.71526018601
5.89,-3.89190640216,1.75408403519
5.9,-3.89190640216,1.79300309921
5.91,-3.94844021702,1.83220483231
5.92,-3.9293972478,1.87159401963
5.93,-3.93891873241,1.91093559953
5.94,-3.93891873241,1.95032478686
5.95,-3.96748318624,1.98985679645
5.96,-3.86334194834,2.02901092212
5.97,-3.85382046373,2.06759673418
5.98,-3.80621304069,2.10589690171
5.99,-3.77764858687,2.14381620984
6,-3.68243374079,2.18111662148
6.01,-3.60626186393,2.21756009951
6.02,-3.54020656446,2.25329244165
6.03,-3.45451320299,2.28826604048
6.04,-3.31169093387,2.32209706117
6.05,-3.2361141498,2.35483608659
6.06,-3.15994227293,2.3868163687
6.07,-2.9980770346,2.41760646524
6.08,-3.03616297303,2.44777766528
6.09,-2.81776391984,2.47704729974
6.1,-2.77967798141,2.50503450925
6.11,-2.56127892822,2.5317392938
6.12,-2.37084923606,2.55639993462
6.13,-2.26670799816,2.57958772079
6.14,-2.1905361213,2.60187394139
6.15,-2.03819236757,2.62301758383
6.16,-1.92452964507,2.64283119389
6.17,-1.82931479899,2.66160041611
6.18,-1.75314292213,2.67951270472
6.19,-1.65792807605,2.69656805971
6.2,-1.55378683815,2.71262663428
6.21,-1.43952902286,2.72759321359
6.22,-1.2687373927,2.74113454566
6.23,-1.18304403123,2.75339345278
6.24,-1.09735066976,2.76479542629
6.25,-0.964644978041,2.77510540453
6.26,-0.869430131963,2.78427578008
6.27,-0.774215285885,2.79249400717
6.28,-0.651031078771,2.79962023899
6.29,-0.584380686516,2.80579729782
6.3,-0.498687325045,2.81121263787
6.31,-0.470122871222,2.81605668886
6.32,-0.422515448183,2.82051988045
6.33,-0.384429509751,2.82455460524
6.34,-0.34634357132,2.82820847065
6.35,-0.280288271853,2.83134162986
6.36,-0.232680848814,2.83390647547
6.37,-0.185073425775,2.83599524684
6.38,-0.127944518128,2.83756033656
6.39,-0.0612941258732,2.83850652978
6.4,0.00476117359358,2.83878919454
6.41,0.0333256274171,2.83859876054
6.42,0.0618900812406,2.83812268199
6.43,0.0999760196719,2.83731335149
6.44,0.166626411927,2.83598033933
6.45,0.261841258005,2.83383800098
6.46,0.385025465119,2.83060366736
6.47,0.508804765021,2.82613451621
6.48,0.613541095707,2.82052278691
6.49,0.727203818213,2.81381906234
6.5,0.793854210468,2.8062137722
6.51,0.803375695075,2.79822762267
6.52,0.879547571938,2.78981300633
6.53,0.974167325228,2.78054443185
6.54,1.04081771748,2.77046950663
6.55,1.10746810974,2.7597280775
6.56,1.1836399866,2.74827253702
6.57,1.24076889425,2.73615049261
6.58,1.34491013215,2.72322209748
6.59,1.43060349362,2.70934452935
6.6,1.56390427813,2.69437199049
6.61,1.71565293906,2.67797420441
6.62,1.84895372357,2.66015117109
6.63,1.95309496147,2.64114092767
6.64,2.06735277676,2.62103868898
6.65,2.15304613824,2.5999366944
6.66,2.21017504588,2.57812058848
6.67,2.24826098431,2.55582840833
6.68,2.24826098431,2.53334579849
6.69,2.30479479917,2.51058051957
6.7,2.23873949971,2.48786284808
6.71,2.28575182996,2.46524039143
6.72,2.27623034535,2.44243048055
6.73,2.31431628378,2.41947774741
6.74,2.39048816064,2.39595372518
6.75,2.46666003751,2.37166798419
6.76,2.53331042976,2.34666813186
6.77,2.50474597594,2.32147784983
6.78,2.58984424462,2.29600489873
6.79,2.55235339898,2.27029391051
6.8,2.57139636819,2.24467516167
6.81,2.59936572923,2.21882135118
6.82,2.63745166766,2.1926372642
6.83,2.59936572923,2.16645317722
6.84,2.71362354452,2.13988823085
6.85,2.67553760609,2.11294242509
6.86,2.72314502913,2.08594901192
6.87,2.70410205991,2.05881277647
6.88,2.78027393678,2.03139089649
6.89,2.66601612148,2.0041594462
6.9,2.59936572923,1.97783253694
6.91,2.58984424462,1.95188648707
6.92,2.5809178528,1.92603267659
6.93,2.46666003751,1.90079478714
6.94,2.50474597594,1.87593775707
6.95,2.58984424462,1.85046480597
6.96,2.60888721384,1.82447114867
6.97,2.5809178528,1.79852212334
6.98,2.63745166766,1.77243027574
6.99,2.60888721384,1.74619858133
7,2.65649463687,1.71987167208
7.01,2.58984424462,1.69363997767
7.02,2.50474597594,1.66816702657
7.03,2.47618152211,1.64326238908
7.04,2.51426746054,1.61831014416
7.05,2.56187488358,1.59292943244
7.06,2.5809178528,1.56721546876
7.07,2.59936572923,1.54131405085
7.08,2.62793018305,1.51517757129
7.09,2.59936572923,1.48904109173
7.1,2.53331042976,1.46337771093
7.11,2.54283191437,1.43799699921
7.12,2.53331042976,1.41261628749
7.13,2.48570300672,1.38752122031
7.14,2.50474597594,1.3625689754
7.15,2.54283191437,1.33733108594
7.16,2.51426746054,1.31204558907
7.17,2.57139636819,1.28661726993
7.18,2.58984424462,1.26081106686
7.19,2.66601612148,1.23453176503
7.2,2.62793018305,1.20806203351
7.21,2.70410205991,1.18140187229
7.22,2.6850590907,1.15445606654
7.23,2.69458057531,1.12755786821
7.24,2.64697315227,1.10085009957
7.25,2.61840869844,1.07452319032
7.26,2.54283191437,1.04871698726
7.27,2.49522449133,1.02352670523
7.28,2.42857409907,0.998907712275
7.29,2.43809558368,0.974574363861
7.3,2.39048816064,0.95043144514
7.31,2.41905261447,0.926383741264
7.32,2.35240222221,0.902526467081
7.33,2.31431628378,0.879192874551
7.34,2.29527331456,0.856144926559
7.35,2.28575182996,0.833239800837
7.36,2.24826098431,0.810569736765
7.37,2.2292180151,0.788182341768
7.38,2.23873949971,0.765842554194
7.39,2.23873949971,0.743455159197
7.4,2.19113207667,0.721305801315
7.41,2.19113207667,0.699394480548
7.42,2.14352465363,0.677721196897
7.43,2.08639574598,0.656571594899
7.44,2.02926683833,0.635993281977
7.45,2.00070238451,0.615843435863
7.46,1.9911808999,0.595884019441
7.47,1.94357347686,0.576210247557
7.48,1.89656114661,0.55700957444
7.49,1.89656114661,0.538043962974
7.5,1.89656114661,0.519078351508
7.51,1.89656114661,0.500112740042
7.52,1.82991075436,0.481480380537
7.53,1.82038926975,0.463228880416
7.54,1.79182481593,0.445167809988
7.55,1.7632603621,0.427392384098
7.56,1.71565293906,0.409997817592
7.57,1.64900254681,0.393174540162
7.58,1.57342576273,0.377062398615
7.59,1.51629685509,0.361613785526
7.6,1.42108200901,0.346926891205
7.61,1.34491013215,0.333096930499
7.62,1.24076889425,0.320168535367
7.63,1.08842514052,0.308522565194
7.64,0.87002608733,0.298730309054
7.65,0.55641218806,0.291598117677
7.66,0.19519086575,0.287840102408
7.67,-0.204116394991,0.287884730054
7.68,-0.679000439806,0.292300314228
7.69,-1.12591512359,0.301324892045
7.7,-1.4871364459,0.314390149893
7.71,-1.64840659144,0.33006786508
7.72,-1.81979331438,0.347408864609
7.73,-1.95309409889,0.366273301675
7.74,-2.04771385218,0.38627734143
7.75,-2.11436424444,0.407087731913
7.76,-2.08579979061,0.428088552089
7.77,-2.10484275983,0.449041764841
7.78,-2.07627830601,0.46994737017
7.79,-2.01914939836,0.490424508692
7.8,-2.01914939836,0.510616002676
7.81,-1.99058494453,0.53066467439
7.82,-1.95309409889,0.550383069607
7.83,-1.94357261428,0.569866403173
7.84,-1.91500816046,0.589159307047
7.85,-1.94357261428,0.60845221092
7.86,-1.99058494453,0.628122998714
7.87,-1.99058494453,0.64802884816
7.88,-2.03819236757,0.66817273472
7.89,-2.13340721365,0.689030732626
7.9,-2.12388572904,0.71031719734
7.91,-2.13340721365,0.731603662053
7.92,-2.14292869826,0.752985341613
7.93,-2.13340721365,0.774367021172
7.94,-2.10484275983,0.79555827104
7.95,-2.13340721365,0.816749520907
7.96,-2.15245018287,0.83817880789
7.97,-2.13340721365,0.859608094872
7.98,-2.13340721365,0.880942167009
7.99,-2.10484275983,0.902133416876
8,-2.11436424444,0.923229451898
8.01,-2.03819236757,0.943992234958
8.02,-2.01914939836,0.964278943787
8.03,-1.90548667585,0.983902124158
8.04,-1.8388362836,1.00262373896
8.05,-1.80075034517,1.0208216721
8.06,-1.80075034517,1.03882917555
8.07,-1.81979331438,1.05693189385
8.08,-1.82931479899,1.07517743442
8.09,-1.82931479899,1.09347058241
8.1,-1.79122886056,1.1115733007
8.11,-1.78170737595,1.12943798189
8.12,-1.75314292213,1.14711223338
8.13,-1.7150569837,1.16445323291
8.14,-1.76266440673,1.18184183986
8.15,-1.73409995291,1.19932566166
8.16,-1.69601401448,1.21647623149
8.17,-1.63888510683,1.2331507271
8.18,-1.57282980737,1.24920930167
8.19,-1.57282980737,1.26493759974
8.2,-1.52522238433,1.2804278607
8.21,-1.53474386894,1.29572769197
8.22,-1.4966579305,1.31088470097
8.23,-1.44905050746,1.32561324316
8.24,-1.38240011521,1.33977049627
8.25,-1.32527120756,1.35330885288
8.26,-1.22112996966,1.36604085877
8.27,-1.09735066976,1.37763326197
8.28,-0.92655903961,1.38775281051
8.29,-0.745650832061,1.39611385987
8.3,-0.546294748085,1.40257358777
8.31,-0.327895694893,1.40694453999
8.32,-0.127944518128,1.40922374105
8.33,0.0999760196719,1.40936358354
8.34,0.346939526687,1.40712900581
8.35,0.623062580315,1.40227899528
8.36,0.850983118115,1.39490876679
8.37,1.01225326366,1.38559258488
8.38,1.13603256356,1.37485115574
8.39,1.23124740964,1.36301475587
8.4,1.30682419371,1.35032439786
8.41,1.39251755518,1.33682768911
8.42,1.48773240126,1.32242643933
8.43,1.51629685509,1.30740629305
8.44,1.55438279352,1.29205289481
8.45,1.59246873195,1.27631863718
8.46,1.60199021656,1.26034634244
8.47,1.62043809298,1.24423420089
8.48,1.61091660838,1.22807742738
8.49,1.6394810622,1.21182543903
8.5,1.69660996985,1.19514498387
8.51,1.69660996985,1.17817888417
8.52,1.71565293906,1.16111756963
8.53,1.69660996985,1.14405625508
8.54,1.69660996985,1.12709015538
8.55,1.68708848524,1.11017166311
8.56,1.6394810622,1.09353881537
8.57,1.6394810622,1.07714400475
8.58,1.6394810622,1.06074919413
8.59,1.66804551602,1.04421156123
8.6,1.70613145446,1.02734067638
8.61,1.72517442367,1.01018414699
8.62,1.75373887749,0.992789580486
8.63,1.77278184671,0.975156976865
8.64,1.79182481593,0.957333943552
8.65,1.78230333132,0.939463302816
8.66,1.78230333132,0.921640269502
8.67,1.80134630053,0.903722021343
8.68,1.77278184671,0.885851380607
8.69,1.78230333132,0.868075954717
8.7,1.78230333132,0.850252921404
8.71,1.7632603621,0.832525102937
8.72,1.77278184671,0.814844891893
8.73,1.7632603621,0.797164680848
8.74,1.78230333132,0.779436862381
8.75,1.78230333132,0.761613829068
8.76,1.78230333132,0.743790795755
8.77,1.79182481593,0.725920155019
8.78,1.74421739289,0.708239943975
8.79,1.75373887749,0.690750162623
8.8,1.74421739289,0.673260381271
8.81,1.72517442367,0.655913422188
8.82,1.71565293906,0.638709285374
8.83,1.68708848524,0.621695578253
8.84,1.67756700063,0.604872300824
8.85,1.65852403142,0.588191845663
8.86,1.66804551602,0.571558997926
8.87,1.6394810622,0.555021365035
8.88,1.68708848524,0.538388517298
8.89,1.60199021656,0.521943123789
8.9,1.60199021656,0.505923221623
8.91,1.56390427813,0.49009374915
8.92,1.55438279352,0.474502313791
8.93,1.55438279352,0.458958485856
8.94,1.5353398243,0.443509872767
8.95,1.5353398243,0.428156474524
8.96,1.54486130891,0.412755468858
8.97,1.5353398243,0.397354463192
8.98,1.47821091666,0.382286709487
8.99,1.44012497822,0.367695030013
9,1.33538864754,0.353817461884
9.01,1.24076889425,0.340936674175
9.02,1.1836399866,0.328814629771
9.03,1.08842514052,0.317454304135
9.04,0.964645840621,0.30718894923
9.05,0.850983118115,0.298110804436
9.06,0.679596395174,0.290457906869
9.07,0.508804765021,0.284515901068
9.08,0.290405711828,0.280519848684
9.09,0.0333256274171,0.278901191988
9.1,-0.308852725677,0.280278827479
9.11,-0.651031078771,0.285078246502
9.12,-0.974166462649,0.293204234209
9.13,-1.18304403123,0.303990286678
9.14,-1.34431417678,0.316627077718
9.15,-1.41096456903,0.330403471447
9.16,-1.60139426119,0.345465265598
9.17,-1.68649252987,0.361904699554
9.18,-1.82931479899,0.379483736198
9.19,-1.91500816046,0.398205350995
9.2,-2.00962791375,0.417828531366
9.21,-2.01914939836,0.437972417927
9.22,-2.03819236757,0.458259126756
9.23,-2.0667568214,0.478783872701
9.24,-2.09532127522,0.499594263184
9.25,-2.07627830601,0.52045226109
9.26,-1.99058494453,0.540786577343
9.27,-1.97154197532,0.560597211942
9.28,-1.96202049071,0.580265024273
9.29,-1.98106345993,0.599980444026
9.3,-1.98106345993,0.619791078625
9.31,-1.95309409889,0.639461866419
9.32,-1.93405112968,0.658897592562
9.33,-1.96202049071,0.678377950664
9.34,-1.93405112968,0.697858308766
9.35,-1.90548667585,0.717055997794
9.36,-1.90548667585,0.736110864552
9.37,-1.86740073742,0.754975301618
9.38,-1.85787925281,0.77360170157
9.39,-1.86740073742,0.792228101521
9.4,-1.79122886056,0.810521249511
9.41,-1.75314292213,0.828243108424
9.42,-1.78170737595,0.845917359914
9.43,-1.74362143752,0.863544003982
9.44,-1.68649252987,0.880694573819
9.45,-1.75314292213,0.897892751079
9.46,-1.77218589134,0.915519395146
9.47,-1.78170737595,0.933288861483
9.48,-1.75314292213,0.950963112973
9.49,-1.70553549909,0.968256505079
9.5,-1.66744956066,0.985121430378
9.51,-1.66744956066,1.00179592598
9.52,-1.6109157458,1.01818775252
9.53,-1.58235129197,1.03415408771
9.54,-1.56330832276,1.04988238578
9.55,-1.57282980737,1.06556307643
9.56,-1.56330832276,1.08124376708
9.57,-1.57282980737,1.09692445773
9.58,-1.56330832276,1.11260514838
9.59,-1.53474386894,1.12809540934
9.6,-1.50617941511,1.14330002576
9.61,-1.4966579305,1.15831421249
9.62,-1.47761496129,1.17318557695
9.63,-1.4871364459,1.18800933398
9.64,-1.45857199207,1.20273787617
9.65,-1.40144308443,1.21703795156
9.66,-1.3728786306,1.23090956013
9.67,-1.30682333114,1.24430806994
9.68,-1.2592159081,1.25713826614
9.69,-1.21160848506,1.2694923881
9.7,-1.13543660819,1.28122761357
9.71,-1.04022176212,1.29210590542
9.72,-0.945602008826,1.30203502427
9.73,-0.859908647355,1.31106257756
9.74,-0.736129347453,1.31904276753
9.75,-0.612945140339,1.32578813997
9.76,-0.432036932791,1.33101305033
9.77,-0.25172381803,1.33443185409
9.78,-0.0422511566576,1.33590172896
9.79,0.176147896535,1.33523224526
9.8,0.432632888158,1.33218834134
9.81,0.641510456742,1.32681762461
9.82,0.850983118115,1.31935515674
9.83,0.993210294444,1.31013418968
9.84,1.07890365591,1.29977361993
9.85,1.25029037886,1.28812764975
9.86,1.32586716293,1.27524686204
9.87,1.43060349362,1.26146450876
9.88,1.49725388587,1.24682522186
9.89,1.58294724734,1.2314242162
9.9,1.6394810622,1.21531207465
9.91,1.66804551602,1.19877444176
9.92,1.72517442367,1.18180834206
9.93,1.72517442367,1.16455659782
9.94,1.71565293906,1.14735246101
9.95,1.73469590828,1.13010071677
9.96,1.78230333132,1.11251572057
9.97,1.78230333132,1.09469268726
9.98,1.83943223896,1.07658400941
9.99,1.83943223896,1.05818968702
10,1.83943223896,1.03979536463
10.01,1.84895372357,1.02135343482
10.02,1.85847520818,1.00281629016
10.03,1.8775181774,0.984136323231
10.04,1.89656114661,0.965265926611
10.05,1.85847520818,0.946490744837
10.06,1.86799669279,0.927858385332
10.07,1.86799669279,0.909178418404
10.08,1.85847520818,0.890546058899
10.09,1.887039662,0.871818484548
10.1,1.85847520818,0.853090910197
10.11,1.84895372357,0.834553765539
10.12,1.82038926975,0.816207050572
10.13,1.81086778514,0.798050765297
10.14,1.78230333132,0.780084909715
10.15,1.77278184671,0.762309483825
10.16,1.79182481593,0.744486450512
10.17,1.74421739289,0.726806239468
10.18,1.73469590828,0.709411672962
10.19,1.73469590828,0.692064713879
10.2,1.72517442367,0.674765362219
10.21,1.69660996985,0.657656440252
10.22,1.66804551602,0.640833162822
10.23,1.65852403142,0.624200315085
10.24,1.6394810622,0.607710289617
10.25,1.6394810622,0.591315478995
10.26,1.59246873195,0.575155730024
10.27,1.5353398243,0.559516687243
10.28,1.52581833969,0.544210896423
10.29,1.50677537048,0.529047927872
10.3,1.46868943205,0.51417060386
10.31,1.43060349362,0.499674139231
10.32,1.39251755518,0.485558533987
10.33,1.36395310136,0.471776180705
10.34,1.35443161675,0.458184257114
10.35,1.33538864754,0.444735155793
10.36,1.2877812245,0.431619306432
10.37,1.25981186346,0.418881340993
10.38,1.19316147121,0.406616474319
10.39,1.15507553278,0.394875289299
10.4,1.12651107895,0.383467356241
10.41,1.08842514052,0.372392675143
10.42,1.05033920209,0.36169885343
10.43,1.02177474827,0.351338283678
10.44,1.00273177905,0.341215751042
10.45,0.983688809836,0.331283648097
10.46,0.936676479585,0.32168182165
10.47,0.927154994977,0.312362664277
10.48,0.879547571938,0.303329151443
10.49,0.860504602722,0.29462889057
10.5,0.793854210468,0.286357096504
10.51,0.755768272036,0.278608984091
10.52,0.717682333605,0.271241731063
10.53,0.679596395174,0.264255337419
10.54,0.641510456742,0.257649803159
10.55,0.604019611099,0.25142215282
10.56,0.584976641883,0.245477171555
10.57,0.55641218806,0.239770227406
10.58,0.527847734236,0.234348927794
10.59,0.499283280413,0.229213272721
10.6,0.480240311197,0.224315654763
10.61,0.461197341981,0.219608466497
10.62,0.442154372766,0.215091707923
10.63,0.413589918942,0.210812986465
10.64,0.385025465119,0.206819909544
10.65,0.346939526687,0.203160084585
10.66,0.299927196436,0.19992575097
10.67,0.271362742613,0.197069301274
10.68,0.214233834966,0.194641318387
10.69,0.147583442711,0.192832231998
10.7,0.0904545350641,0.191642042109
10.71,0.0238041428092,0.19107074872
10.72,-0.0327296720498,0.191115376366
10.73,-0.108901548912,0.191823532471
10.74,-0.185073425775,0.193293407344
10.75,-0.261245302638,0.195525000986
10.76,-0.34634357132,0.198562945356
10.77,-0.403472478967,0.202312025608
10.78,-0.460601386614,0.206632394936
10.79,-0.498687325045,0.211428838494
10.8,-0.555816232692,0.216701356283
10.81,-0.622466624947,0.222592770571
10.82,-0.736129347453,0.229385750433
10.83,-0.878951616571,0.237461155253
10.84,-1.01165730829,0.246914199877
10.85,-1.18304403123,0.257887706575
10.86,-1.29730184653,0.270289435964
10.87,-1.43952902286,0.283973590311
10.88,-1.54426535354,0.298892562193
10.89,-1.66744956066,0.314951136764
10.9,-1.75314292213,0.332054099177
10.91,-1.88644370664,0.350252032321
10.92,-1.97154197532,0.369541960731
10.93,-2.01914939836,0.3894954176
10.94,-2.07627830601,0.409972556121
10.95,-2.12388572904,0.430973376297
10.96,-2.20957909052,0.452640700394
10.97,-2.26670799816,0.475022135838
10.98,-2.28515587459,0.497781455202
10.99,-2.27622948277,0.520588381988
11,-2.34228478224,0.543680953313
11.01,-2.36132775145,0.567199015982
11.02,-2.43749962831,0.591193152881
11.03,-2.42797814371,0.615520541741
11.04,-2.43749962831,0.639847930601
11.05,-2.37084923606,0.663889674923
11.06,-2.39941368988,0.687740989552
11.07,-2.36132775145,0.711544696759
11.08,-2.44702111292,0.735586441081
11.09,-2.4184566591,0.759913829941
11.1,-2.4184566591,0.784098396532
11.11,-2.43749962831,0.808378177969
11.12,-2.4184566591,0.832657959406
11.13,-2.38989220528,0.856699703728
11.14,-2.36132775145,0.880455803512
11.15,-2.38989220528,0.904211903295
11.16,-2.37084923606,0.928015610502
11.17,-2.30419884381,0.951390850901
11.18,-2.23814354434,0.974102562842
11.19,-2.18101463669,0.996198353747
11.2,-2.20957909052,1.01815132238
11.21,-2.16197166748,1.04000907617
11.22,-2.11436424444,1.06139075573
11.23,-2.11436424444,1.08253439818
11.24,-2.14292869826,1.10382086289
11.25,-2.16197166748,1.12534536472
11.26,-2.13340721365,1.14682225913
11.27,-2.0667568214,1.1678230793
11.28,-2.09532127522,1.18863346978
11.29,-2.13340721365,1.20977711223
11.3,-2.10484275983,1.2309683621
11.31,-2.14292869826,1.25220721939
11.32,-2.14292869826,1.27363650637
11.33,-2.13340721365,1.29501818593
11.34,-2.18101463669,1.31659029518
11.35,-2.20957909052,1.33854326382
11.36,-2.18101463669,1.36049623245
11.37,-2.20957909052,1.38244920109
11.38,-2.18101463669,1.40440216972
11.39,-2.25718651355,1.42659317547
11.4,-2.25718651355,1.44916504061
11.41,-2.1905361213,1.47140365378
11.42,-2.21910057512,1.49345183727
11.43,-2.25718651355,1.51583327271
11.44,-2.23814354434,1.538309923
11.45,-2.18101463669,1.5604057139
11.46,-2.22862205973,1.58245389739
11.47,-2.18101463669,1.60450208087
11.48,-2.21910057512,1.62650265693
11.49,-2.20957909052,1.64864605526
11.5,-2.25718651355,1.67097988328
11.51,-2.18101463669,1.69317088903
11.52,-2.18101463669,1.71498103539
11.53,-2.14292869826,1.73660075207
11.54,-2.17149315208,1.75817286132
11.55,-2.15245018287,1.779792578
11.56,-2.17149315208,1.80141229467
11.57,-2.16197166748,1.82307961877
11.58,-2.20957909052,1.84493737256
11.59,-2.20957909052,1.86703316346
11.6,-2.1905361213,1.88903373952
11.61,-2.11436424444,1.91055824135
11.62,-2.07627830601,1.9315114541
11.63,-2.08579979061,1.95232184459
11.64,-2.0667568214,1.97308462765
11.65,-2.04771385218,1.99365698101
11.66,-2.02867088297,2.01403890469
11.67,-2.00962791375,2.03423039867
11.68,-1.95309409889,2.05404400874
11.69,-1.90548667585,2.07333691261
11.7,-1.86740073742,2.09220134968
11.71,-1.8388362836,2.11073253478
11.72,-1.80075034517,2.12893046793
11.73,-1.73409995291,2.14660471942
11.74,-1.69601401448,2.16375528925
11.75,-1.68649252987,2.18066782198
11.76,-1.63888510683,2.19729471016
11.77,-1.60139426119,2.213496107
11.78,-1.59187277658,2.22946244219
11.79,-1.4966579305,2.24490509572
11.8,-1.52522238433,2.2600144973
11.81,-1.47761496129,2.27502868403
11.82,-1.4871364459,2.28985244106
11.83,-1.42048605364,2.30439055356
11.84,-1.3728786306,2.31835737698
11.85,-1.33479269217,2.33189573359
11.86,-1.31574972295,2.34514844567
11.87,-1.2592159081,2.35802327383
11.88,-1.24017293888,2.37052021806
11.89,-1.21160848506,2.38277912518
11.9,-1.21160848506,2.39489521003
11.91,-1.17352254663,2.40682086519
11.92,-1.1449580928,2.41841326839
11.93,-1.1449580928,2.42986284931
11.94,-1.15447957741,2.44136003766
11.95,-1.12591512359,2.45276201117
11.96,-1.10687215437,2.46392594756
11.97,-1.09735066976,2.47494706168
11.98,-1.10687215437,2.4859681758
11.99,-1.07830770055,2.49689407508
12,-1.07830770055,2.50767715208
12.01,-1.10687215437,2.51860305136
12.02,-1.12591512359,2.52976698775
12.03,-1.18304403123,2.54131178352
12.04,-1.18304403123,2.55314222383
12.05,-1.19256551584,2.56502027157
12.06,-1.18304403123,2.5768983193
12.07,-1.15447957741,2.58858593735
12.08,-1.15447957741,2.60013073312
12.09,-1.15447957741,2.61167552889
12.1,-1.13543660819,2.62312510982
12.11,-1.13543660819,2.6344794759
12.12,-1.10687215437,2.64569101972
12.13,-1.10687215437,2.65675974126
12.14,-1.10687215437,2.6678284628
12.15,-1.06878621594,2.67870675466
12.16,-0.992614339077,2.68901375743
12.17,-0.878951616571,2.69837158721
12.18,-0.669478955198,2.70611374007
12.19,-0.412993963575,2.71152610466
12.2,-0.0517726412654,2.71384993769
12.21,0.394546949727,2.71213606614
12.22,0.936676479585,2.705479949
12.23,1.38299607058,2.69388158625
12.24,1.77278184671,2.67810269666
12.25,2.24826098431,2.6579974825
12.26,2.78027393678,2.6328548079
12.27,3.33132985845,2.60229678892
12.28,3.74968008841,2.56689173919
12.29,4.06329398768,2.52782686881
12.3,4.19659477219,2.48652742501
12.31,4.39595085617,2.44356469687
12.32,4.3197789793,2.39998604769
12.33,4.32930046391,2.35674065047
12.34,4.51973015607,2.31249549737
12.35,4.52925164068,2.26725058839
12.36,4.4340367946,2.22243414621
12.37,4.5476995171,2.17752546466
12.38,4.47212273303,2.1324263534
12.39,4.50068718685,2.08756230381
12.4,4.52925164068,2.04241260967
12.41,4.5476995171,1.99702785388
12.42,4.57626397093,1.95140803644
12.43,4.55722100171,1.90574061158
12.44,4.51020867146,1.86040346321
12.45,4.6619573324,1.81454263319
12.46,4.70956475544,1.76768502275
12.47,4.70956475544,1.7205893752
12.48,4.67147881701,1.67368415733
12.49,4.73812920926,1.6266361172
12.5,4.74765069387,1.57920721769
12.51,4.8898778702,1.53101957487
12.52,4.72860772465,1.48292714689
12.53,4.61434990936,1.43621235872
12.54,4.69052178622,1.38968800024
12.55,4.6619573324,1.34292560465
12.56,4.5476995171,1.2968773204
12.57,4.50068718685,1.25163538688
12.58,4.67147881701,1.20577455687
12.59,4.58578545554,1.1594882355
12.6,4.63339287858,1.11339234383
12.61,4.50068718685,1.0677219435
12.62,4.49116570225,1.02276267906
12.63,4.46260124842,0.977993844306
12.64,4.42451530999,0.933558261514
12.65,4.32930046391,0.889789182644
12.66,4.21504264862,0.847067467081
12.67,4.36738640234,0.804155321827
12.68,4.29121452548,0.760862317188
12.69,4.24360710244,0.718188209048
12.7,4.0918584415,0.676510881328
12.71,4.12994437994,0.635401867221
12.72,4.15850883376,0.593959601153
12.73,4.20552116401,0.552139451164
12.74,4.06329398768,0.510795375405
12.75,4.05377250307,0.470210042952
12.76,3.99664359543,0.429957962459
12.77,3.9680791416,0.390134348774
12.78,3.93951468778,0.350596379627
12.79,3.89190726474,0.311439269864
12.8,3.89190726474,0.272520197217
12.81,3.79728751145,0.234074223336
12.82,3.77824454223,0.196196563068
12.83,3.67350821155,0.158937799299
12.84,3.52175955061,0.122961460488
12.85,3.46463064296,0.0880295095201
12.86,3.47415212757,0.0533355956674
12.87,3.5027165814,0.0184512521226
12.88,3.37893728149,-0.0159570171919
12.89,3.35989431228,-0.0496511751607
12.9,3.35037282767,-0.0832025108605
12.91,3.2646794662,-0.11627777233
12.92,3.05580189762,-0.147880179149
12.93,2.85644581364,-0.177441417705
12.94,2.52378894515,-0.204342591499
12.95,2.31431628378,-0.228533117644
12.96,2.25778246892,-0.251393611407
12.97,2.1149601998,-0.273257324751
12.98,2.01974535373,-0.293930852519
12.99,1.91560411583,-0.313607599866
13,1.86799669279,-0.332525603909
13.01,1.84895372357,-0.351110355991
13.02,1.78230333132,-0.369266641266
13.03,1.75373887749,-0.38694685231
13.04,1.70613145446,-0.40424620397
13.05,1.66804551602,-0.421117088822
13.06,1.62995957759,-0.43760711429
13.07,1.61091660838,-0.45381149522
13.08,1.56390427813,-0.469685599652
13.09,1.52581833969,-0.485134212741
13.1,1.49725388587,-0.500249573869
13.11,1.45916794744,-0.515031683036
13.12,1.40203903979,-0.529337717972
13.13,1.35443161675,-0.543120071255
13.14,1.2877812245,-0.556331135461
13.15,1.25981186346,-0.569069100901
13.16,1.20268295582,-0.581381574997
13.17,1.1836399866,-0.593313189709
13.18,1.15507553278,-0.605006767306
13.19,1.13603256356,-0.616462307788
13.2,1.08842514052,-0.627584596308
13.21,1.07890365591,-0.63842124029
13.22,1.03129623288,-0.648972239734
13.23,1.01225326366,-0.659189987217
13.24,0.993210294444,-0.669217305008
13.25,0.983688809836,-0.679101800529
13.26,0.974167325228,-0.688891081204
13.27,0.955719448801,-0.698540515074
13.28,0.927154994977,-0.707954887293
13.29,0.927154994977,-0.717226437243
13.3,0.908112025762,-0.726402772347
13.31,0.898590541154,-0.735436285181
13.32,0.889069056546,-0.74437458317
13.33,0.860504602722,-0.753122451466
13.34,0.850983118115,-0.76167989007
13.35,0.822418664291,-0.770046898982
13.36,0.793854210468,-0.778128263356
13.37,0.765289756644,-0.785923983192
13.38,0.755768272036,-0.793529273335
13.39,0.727203818213,-0.800944133786
13.4,0.698639364389,-0.808073349699
13.41,0.670074910566,-0.814916921074
13.42,0.632584064922,-0.821430215952
13.43,0.623062580315,-0.827708449178
13.44,0.594498126491,-0.833796252712
13.45,0.575455157275,-0.839646019131
13.46,0.565933672668,-0.84535296328
13.47,0.565933672668,-0.851012300007
13.48,0.527847734236,-0.856481207042
13.49,0.527847734236,-0.861759684384
13.5,0.518326249628,-0.866990554303
13.51,0.527847734236,-0.872221424223
13.52,0.546890703452,-0.877595116411
13.53,0.518326249628,-0.882921201176
13.54,0.499283280413,-0.888009248827
13.55,0.480240311197,-0.892906866785
13.56,0.480240311197,-0.897709269897
13.57,0.480240311197,-0.902511673009
13.58,0.461197341981,-0.907218861274
13.59,0.470718826589,-0.911878442117
13.6,0.489761795805,-0.916680845229
13.61,0.461197341981,-0.921435640918
13.62,0.442154372766,-0.925952399492
13.63,0.442154372766,-0.93037394322
13.64,0.442154372766,-0.934795486947
13.65,0.451675857374,-0.939264638098
13.66,0.451675857374,-0.943781396672
13.67,0.394546949727,-0.948012510707
13.68,0.299927196436,-0.951484881438
13.69,0.138061958103,-0.953674827211
13.7,-0.0422511566576,-0.954153881218
13.71,-0.289809756461,-0.952493576652
13.72,-0.498687325045,-0.948551091245
13.73,-0.717086378238,-0.942472222728
13.74,-0.840865678139,-0.934682462447
13.75,-0.917037555002,-0.925892946281
13.76,-0.964644978041,-0.916484533616
13.77,-0.955123493433,-0.906885691258
13.78,-1.04022176212,-0.896908964981
13.79,-1.05926473133,-0.886411532513
13.8,-1.07830770055,-0.875723670354
13.81,-1.17352254663,-0.864464519118
13.82,-1.29730184653,-0.852110397152
13.83,-1.42048605364,-0.838521457651
13.84,-1.4966579305,-0.823935737731
13.85,-1.73409995291,-0.807781948314
13.86,-1.95309409889,-0.789345978055
13.87,-2.14292869826,-0.768865864069
13.88,-2.1905361213,-0.747198539971
13.89,-2.2946773592,-0.724772472568
13.9,-2.37084923606,-0.701444839592
13.91,-2.43749962831,-0.67740309527
13.92,-2.43749962831,-0.653028098987
13.93,-2.43749962831,-0.628653102704
13.94,-2.4184566591,-0.604373321267
13.95,-2.39941368988,-0.580283969522
13.96,-2.37084923606,-0.556432654892
13.97,-2.31372032841,-0.53300980707
13.98,-2.2946773592,-0.509967818632
13.99,-2.25718651355,-0.487208499268
14,-2.23814354434,-0.464731848979
14.01,-2.1905361213,-0.442588450651
14.02,-2.30419884381,-0.420114775825
14.03,-2.25718651355,-0.397307849038
14.04,-2.2946773592,-0.374548529675
14.05,-2.28515587459,-0.351649363506
14.06,-2.33276329763,-0.328559767645
14.07,-2.33276329763,-0.305232134668
14.08,-2.33276329763,-0.281904501692
14.09,-2.33276329763,-0.258576868716
14.1,-2.40893517449,-0.234868376355
14.11,-2.37084923606,-0.210969454302
14.12,-2.45654259753,-0.186832495134
14.13,-2.42797814371,-0.162409891428
14.14,-2.39941368988,-0.13827293226
14.15,-2.38037072067,-0.114374010207
14.16,-2.33276329763,-0.0908083401159
14.17,-2.39941368988,-0.0671474551784
14.18,-2.34228478224,-0.0434389628178
14.19,-2.36132775145,-0.0199209001494
14.2,-2.33276329763,0.00354955509605
14.21,-2.2946773592,0.0266867583802
14.22,-2.33276329763,0.0498239616644
14.23,-2.27622948277,0.0728689255664
14.24,-2.2946773592,0.0957234597762
14.25,-2.31372032841,0.118765448214
14.26,-2.34228478224,0.142045473767
14.27,-2.37084923606,0.165611143859
14.28,-2.32324181302,0.189081599104
14.29,-2.34228478224,0.212409232081
14.3,-2.38989220528,0.236070117018
14.31,-2.38037072067,0.259921431648
14.32,-2.36132775145,0.283629924009
14.33,-2.40893517449,0.307481238638
14.34,-2.38989220528,0.331475375537
14.35,-2.40893517449,0.355469512436
14.36,-2.39941368988,0.379511256758
14.37,-2.38989220528,0.403457786234
14.38,-2.38989220528,0.427356708287
14.39,-2.32324181302,0.450922378378
14.4,-2.34228478224,0.474250011354
14.41,-2.28515587459,0.497387214638
14.42,-2.37084923606,0.520667240192
14.43,-2.25718651355,0.54380741894
14.44,-2.2946773592,0.566566738303
14.45,-2.20957909052,0.589088020552
14.46,-2.20957909052,0.611183811457
14.47,-2.20957909052,0.633279602363
14.48,-2.26670799816,0.655661037806
14.49,-2.20005760591,0.677994865826
14.5,-2.21910057512,0.700090656731
14.51,-2.25718651355,0.722472092175
14.52,-2.25718651355,0.74504395731
14.53,-2.24766502895,0.767568215023
14.54,-2.25718651355,0.790092472735
14.55,-2.25718651355,0.812664337871
14.56,-2.26670799816,0.835283810429
14.57,-2.25718651355,0.857903282988
14.58,-2.20005760591,0.880189503585
14.59,-2.21910057512,0.90228529449
14.6,-2.20957909052,0.924428692818
14.61,-2.1905361213,0.946429268878
14.62,-2.16197166748,0.968191807821
14.63,-2.14292869826,0.98971630965
14.64,-2.18101463669,1.01133602632
14.65,-2.11436424444,1.03281292073
14.66,-2.13340721365,1.05405177802
14.67,-2.09532127522,1.07519542047
14.68,-2.04771385218,1.0959105961
14.69,-2.00962791375,1.11619730493
14.7,-1.99058494453,1.13619836922
14.71,-1.98106345993,1.15605661125
14.72,-1.92452964507,1.17558457677
14.73,-1.94357261428,1.19492508807
14.74,-1.99058494453,1.21459587586
14.75,-1.99058494453,1.23450172531
14.76,-2.05723533679,1.25474082671
14.77,-2.09532127522,1.27550360977
14.78,-2.01914939836,1.29607596314
14.79,-1.96202049071,1.31598181259
14.8,-1.82931479899,1.33493848904
14.81,-1.70553549909,1.35261274053
14.82,-1.53474386894,1.36881413737
14.83,-1.38240011521,1.38339985729
14.84,-1.12591512359,1.39594143348
14.85,-0.802779739708,1.4055849078
14.86,-0.412993963575,1.41166377631
14.87,-0.0136867028341,1.41379717965
14.88,0.356461011295,1.4120833081
14.89,0.679596395174,1.40690302107
14.9,0.898590541154,1.39901208639
14.91,0.993210294444,1.38955308221
14.92,1.00273177905,1.37957337184
14.93,1.08842514052,1.36911758725
14.94,1.13603256356,1.35799529873
14.95,1.20268295582,1.34630172113
14.96,1.31634567832,1.33370657796
14.97,1.43060349362,1.3199718321
14.98,1.5353398243,1.30514211551
14.99,1.64900254681,1.28922040365
15,1.71565293906,1.27239712622
15.01,1.78230333132,1.25490734487
15.02,1.78230333132,1.23708431156
15.03,1.82038926975,1.21907084855
15.04,1.82991075436,1.20081934843
15.05,1.82038926975,1.18256784831
15.06,1.79182481593,1.16450677788
15.07,1.79182481593,1.14658852972
15.08,1.83943223896,1.12843224445
15.09,1.89656114661,1.10975227752
15.1,1.91560411583,1.09069145121
15.11,1.91560411583,1.07153541005
15.12,1.95309496147,1.05219191467
15.13,1.89656114661,1.03294363412
15.14,1.93464708504,1.01378759297
15.15,1.94357347686,0.994396490157
15.16,2.01022386912,0.974627503427
15.17,2.01022386912,0.954525264736
15.18,2.07687426137,0.934089774083
15.19,2.1149601998,0.913130601778
15.2,2.17208910745,0.891695355241
15.21,2.16256762284,0.87002207159
15.22,2.2292180151,0.8480631434
15.23,2.23873949971,0.825723355826
15.24,2.23873949971,0.803335960829
15.25,2.2292180151,0.780996173255
15.26,2.30479479917,0.758326109184
15.27,2.28575182996,0.735373376038
15.28,2.26670886074,0.712611072585
15.29,2.29527331456,0.689801161708
15.3,2.20065356127,0.667321527329
15.31,2.21017504588,0.645267384293
15.32,2.15304613824,0.623451278373
15.33,2.12448168441,0.602063639259
15.34,2.1149601998,0.580866429838
15.35,2.08639574598,0.559859650109
15.36,2.08639574598,0.53899569265
15.37,2.07687426137,0.518179342613
15.38,2.09591723059,0.497315385153
15.39,2.07687426137,0.476451427693
15.4,2.06735277676,0.455730292503
15.41,2.02926683833,0.435247194427
15.42,2.02926683833,0.414954526044
15.43,2.01974535373,0.394709465083
15.44,2.01974535373,0.374512011546
15.45,2.01022386912,0.354362165432
15.46,2.01022386912,0.334259926741
15.47,2.01022386912,0.314157688049
15.48,2.01022386912,0.294055449358
15.49,1.97213793069,0.274143640359
15.5,1.94357347686,0.254565083322
15.51,1.91560411583,0.235269195358
15.52,1.887039662,0.216255976469
15.53,1.85847520818,0.197528402118
15.54,1.85847520818,0.178943650036
15.55,1.77278184671,0.160787364762
15.56,1.66804551602,0.143583227948
15.57,1.55438279352,0.1274710864
15.58,1.39251755518,0.112736584657
15.59,1.24076889425,0.0995701524098
15.6,1.05033920209,0.0881146119281
15.61,0.831940148899,0.0787032151731
15.62,0.584976641883,0.0716186312192
15.63,0.375503980511,0.0668162281072
15.64,0.138061958103,0.0642483984142
15.65,-0.0898585796967,0.0640073815221
15.66,-0.336822086712,0.0661407848542
15.67,-0.5653377173,0.0706515838742
15.68,-0.736129347453,0.077158919198
15.69,-0.802779739708,0.0848534646338
15.7,-0.850387162747,0.0931192991461
15.71,-0.897994585786,0.101861207889
15.72,-0.878951616571,0.110745938901
15.73,-0.974166462649,0.120011529297
15.74,-1.04974324672,0.130131077843
15.75,-1.12591512359,0.141009369695
15.76,-1.17352254663,0.152506558046
15.77,-1.2592159081,0.16467025032
15.78,-1.29730184653,0.177452839093
15.79,-1.44905050746,0.191184600863
15.8,-1.50617941511,0.205960750476
15.81,-1.56330832276,0.221308189165
15.82,-1.62995871501,0.237274524354
15.83,-1.7245784683,0.25404721027
15.84,-1.79122886056,0.271626246915
15.85,-1.91500816046,0.29015743202
15.86,-1.95309409889,0.309497943317
15.87,-1.99058494453,0.329216338534
15.88,-2.02867088297,0.349312617671
15.89,-2.02867088297,0.369599326501
15.9,-2.00962791375,0.389790820485
15.91,-2.00962791375,0.409887099622
15.92,-1.99058494453,0.429888163913
15.93,-1.96202049071,0.44965119109
15.94,-1.98106345993,0.469366610843
15.95,-1.94357261428,0.488989791214
15.96,-1.91500816046,0.508282695088
15.97,-1.92452964507,0.527480384115
15.98,-1.87692222203,0.546487643451
15.99,-1.85787925281,0.565161650825
16,-1.87692222203,0.583835658199
16.01,-1.86740073742,0.602557272996
16.02,-1.95309409889,0.621659747178
16.03,-1.95309409889,0.641190688167
16.04,-1.96202049071,0.660766261115
16.05,-1.95309409889,0.680341834063
16.06,-1.98106345993,0.700012621857
16.07,-1.99058494453,0.719870863879
16.08,-1.93405112968,0.73949404425
16.09,-1.85787925281,0.758453696163
16.1,-1.82931479899,0.776889666422
16.11,-1.84835776821,0.795278029258
16.12,-1.82931479899,0.813666392094
16.13,-1.81979331438,0.831911932661
16.14,-1.85787925281,0.850300295497
16.15,-1.82931479899,0.868736265756
16.16,-1.80075034517,0.886886591476
16.17,-1.79122886056,0.904846487505
16.18,-1.77218589134,0.922663561264
16.19,-1.75314292213,0.940290205332
16.2,-1.75314292213,0.957821634553
16.21,-1.7245784683,0.975210241505
16.22,-1.68649252987,0.992265596496
16.23,-1.64840659144,1.0089400921
16.24,-1.65792807605,1.02547176544
16.25,-1.60139426119,1.04176837713
16.26,-1.57282980737,1.05763949747
16.27,-1.52522238433,1.07312975843
16.28,-1.45857199207,1.08804873031
16.29,-1.42048605364,1.10244402054
16.3,-1.41096456903,1.11660127365
16.31,-1.32527120756,1.13028245253
16.32,-1.2687373927,1.14325249554
16.33,-1.1449580928,1.15532097296
16.34,-1.00213582368,1.16605644255
16.35,-0.812301224316,1.17512862779
16.36,-0.612945140339,1.18225485961
16.37,-0.336822086712,1.18700369574
16.38,-0.0898585796967,1.18913709908
16.39,0.147583442711,1.18884847476
16.4,0.375503980511,1.18623303765
16.41,0.594498126491,1.18138302711
16.42,0.746246787428,1.17467930254
16.43,0.850983118115,1.16669315301
16.44,0.927154994977,1.15780246245
16.45,0.936676479585,1.14848330507
16.46,1.06938217131,1.13845301182
16.47,1.12651107895,1.12747354557
16.48,1.20268295582,1.11582757539
16.49,1.2877812245,1.10337525449
16.5,1.34491013215,1.09021179771
16.51,1.38299607058,1.0765722667
16.52,1.43060349362,1.06250426888
16.53,1.46868943205,1.04800780425
16.54,1.47821091666,1.0332733025
16.55,1.48773240126,1.01844358591
16.56,1.51629685509,1.00342343963
16.57,1.58294724734,0.98792721912
16.58,1.58294724734,0.972097746647
16.59,1.61091660838,0.956128427368
16.6,1.64900254681,0.939828831592
16.61,1.64900254681,0.923338806124
16.62,1.65852403142,0.906801173233
16.63,1.65852403142,0.890215932919
16.64,1.66804551602,0.873583085181
16.65,1.71565293906,0.856664592906
16.66,1.65852403142,0.839793708054
16.67,1.6394810622,0.823303682585
16.68,1.65852403142,0.806813657117
16.69,1.64900254681,0.790276024226
16.7,1.66804551602,0.773690783912
16.71,1.66804551602,0.757010328752
16.72,1.62995957759,0.740520303284
16.73,1.65852403142,0.724077885239
16.74,1.64900254681,0.707540252348
16.75,1.67756700063,0.69090740461
16.76,1.65852403142,0.67422694945
16.77,1.65852403142,0.657641709136
16.78,1.65852403142,0.641056468822
16.79,1.71565293906,0.624185583969
16.8,1.69660996985,0.607124269425
16.81,1.68708848524,0.590205777149
16.82,1.66804551602,0.573430107143
16.83,1.70613145446,0.556559222291
16.84,1.62995957759,0.53987876713
16.85,1.59246873195,0.523766625583
16.86,1.56390427813,0.507984760532
16.87,1.55438279352,0.492393325174
16.88,1.54486130891,0.476897104662
16.89,1.56390427813,0.461353276727
16.9,1.5353398243,0.445857056215
16.91,1.55438279352,0.430408443125
16.92,1.54486130891,0.414912222613
16.93,1.5353398243,0.399511216947
16.94,1.55438279352,0.384062603858
16.95,1.5353398243,0.368613990769
16.96,1.5353398243,0.353260592526
16.97,1.50677537048,0.338050016552
16.98,1.50677537048,0.322982262847
16.99,1.50677537048,0.307914509143
17,1.50677537048,0.292846755438
17.01,1.46868943205,0.277969431425
17.02,1.44012497822,0.263425359374
17.03,1.42108200901,0.249119324438
17.04,1.42108200901,0.234908504347
17.05,1.4115605244,0.22074529168
17.06,1.39251755518,0.206724901283
17.07,1.38299607058,0.192847333154
17.08,1.38299607058,0.179017372448
17.09,1.35443161675,0.165330234011
17.1,1.33538864754,0.15188113269
17.11,1.33538864754,0.138527246214
17.12,1.2877812245,0.125411396854
17.13,1.25029037886,0.112721038837
17.14,1.21220444042,0.100408564741
17.15,1.17411850199,0.088476950029
17.16,1.17411850199,0.0767357650091
17.17,1.16459701738,0.0650421874122
17.18,1.14555404817,0.0534914320845
17.19,1.13603256356,0.0420834990258
17.2,1.13603256356,0.0307231733902
17.21,1.13603256356,0.0193628477546
17.22,1.10746810974,0.00814534438813
17.23,1.12651107895,-0.00302455155533
17.24,1.10746810974,-0.0141944474988
17.25,1.12651107895,-0.0253643434422
17.26,1.13603256356,-0.0366770616548
17.27,1.09794662513,-0.0478469575982
17.28,1.06938217131,-0.0586836015804
17.29,1.03129623288,-0.0691869936014
17.3,1.02177474827,-0.0794523485071
17.31,1.00273177905,-0.0895748811437
17.32,0.983688809836,-0.0995069840882
17.33,0.974167325228,-0.109296264763
17.34,0.946197964193,-0.118898091211
17.35,0.908112025762,-0.12816964116
17.36,0.860504602722,-0.137012724303
17.37,0.78433272586,-0.145236910946
17.38,0.679596395174,-0.152556556551
17.39,0.575455157275,-0.158831814313
17.4,0.442154372766,-0.163919861963
17.41,0.290405711828,-0.167582662386
17.42,0.138061958103,-0.169725000736
17.43,-0.0422511566576,-0.170204054743
17.44,-0.204116394991,-0.168972216985
17.45,-0.374908025144,-0.166077094884
17.46,-0.498687325045,-0.161709118133
17.47,-0.641509594163,-0.156008133537
17.48,-0.726607862845,-0.149167546252
17.49,-0.7932582551,-0.141568215662
17.5,-0.850387162747,-0.133349988573
17.51,-0.869430131963,-0.1247509021
17.52,-0.888473101179,-0.115961385934
17.53,-0.974166462649,-0.106648188115
17.54,-1.03070027751,-0.0966238544141
17.55,-1.07830770055,-0.0860788145238
17.56,-1.15447957741,-0.074914878134
17.57,-1.19256551584,-0.0631796526677
17.58,-1.2687373927,-0.050873138125
17.59,-1.29730184653,-0.0380429419289
17.6,-1.29730184653,-0.0250699234636
17.61,-1.2592159081,-0.0122873346904
17.62,-1.28778036192,0.000447646659692
17.63,-1.24969442349,0.0131350205867
17.64,-1.24017293888,0.0255843573986
17.65,-1.18304403123,0.0377004422491
17.66,-1.11639363898,0.0491976306002
17.67,-1.05926473133,0.0600759224517
17.68,-1.0211787929,0.0704781400729
17.69,-0.974166462649,0.0804548663506
17.7,-0.917037555002,0.0899108864389
17.71,-0.840865678139,0.0987004026046
17.72,-0.802779739708,0.106918629694
17.73,-0.774215285885,0.114803604822
17.74,-0.774215285885,0.122545757681
17.75,-0.783736770492,0.130335517963
17.76,-0.745650832061,0.137982455975
17.77,-0.698043409022,0.145200927181
17.78,-0.622466624947,0.151803477351
17.79,-0.593902171124,0.157885321331
17.8,-0.536773263477,0.163538698504
17.81,-0.460601386614,0.168525571754
17.82,-0.422515448183,0.172941155928
17.83,-0.384429509751,0.176975880718
17.84,-0.34634357132,0.180629746123
17.85,-0.289809756461,0.183810512762
17.86,-0.270766787246,0.186613395481
17.87,-0.270766787246,0.189321063353
17.88,-0.270766787246,0.192028731226
17.89,-0.280288271853,0.194784006521
17.9,-0.299331241069,0.197682104086
17.91,-0.318374210285,0.200770631343
17.92,-0.34634357132,0.204094220251
17.93,-0.365386540536,0.20765287081
17.94,-0.374908025144,0.211354343638
17.95,-0.365386540536,0.215055816467
17.96,-0.355865055928,0.218662074449
17.97,-0.355865055928,0.222220725008
17.98,-0.327895694893,0.225639528762
17.99,-0.318374210285,0.228870878288
18,-0.308852725677,0.232007012968
18.01,-0.289809756461,0.235000325379
18.02,-0.270766787246,0.237803208097
18.03,-0.25172381803,0.240415661124
18.04,-0.232680848814,0.242837684458
18.05,-0.223159364206,0.245116885523
18.06,-0.204116394991,0.247253264319
18.07,-0.194594910383,0.249246820846
18.08,-0.185073425775,0.251145162527
18.09,-0.156508971952,0.252853074515
18.1,-0.11842303352,0.254227734543
18.11,-0.0898585796967,0.255269142609
18.12,-0.0517726412654,0.255977298714
18.13,-0.0422511566576,0.256447417703
18.14,-0.00476031101425,0.256682475042
18.15,0.0238041428092,0.256587255883
18.16,0.0618900812406,0.256158784762
18.17,0.0714115658484,0.255492276527
18.18,0.0714115658484,0.254778160868
18.19,0.0428471120249,0.254206867479
18.2,0.0238041428092,0.253873611205
18.21,0.0238041428092,0.253635569777
18.22,0.0333256274171,0.253349920926
18.23,0.0523685966327,0.252921449805
18.24,0.0618900812406,0.252350156416
18.25,0.0618900812406,0.251731255604
18.26,0.0904545350641,0.250969532522
18.27,0.0904545350641,0.250064987171
18.28,0.0999760196719,0.249112834398
18.29,0.10949750428,0.248065466778
18.3,0.10949750428,0.246970491735
18.31,0.10949750428,0.245875516692
18.32,0.119018988888,0.244732934227
18.33,0.119018988888,0.243542744338
18.34,0.138061958103,0.242257339603
18.35,0.147583442711,0.240829112599
18.36,0.166626411927,0.239258063325
18.37,0.185669381142,0.23749658436
18.38,0.185669381142,0.235639890549
18.39,0.204712350358,0.233687981891
18.4,0.204712350358,0.231640858388
18.41,0.204712350358,0.229593734884
18.42,0.214233834966,0.227499003957
18.43,0.19519086575,0.225451880454
18.44,0.214233834966,0.22340475695
18.45,0.19519086575,0.221357633447
18.46,0.19519086575,0.219405724789
18.47,0.185669381142,0.217501423555
18.48,0.166626411927,0.215739944589
18.49,0.166626411927,0.21407368047
18.5,0.128540473495,0.212597846043
18.51,0.10949750428,0.211407656154
18.52,0.10949750428,0.210312681111
18.53,0.0904545350641,0.209312920915
18.54,0.0809330504562,0.208455982987
18.55,0.0714115658484,0.207694259905
18.56,0.0714115658484,0.206980144247
18.57,0.0714115658484,0.206266028589
18.58,0.0618900812406,0.205599520353
18.59,0.0714115658484,0.204933012118
18.6,0.0714115658484,0.204218896459
18.61,0.0999760196719,0.203361958532
18.62,0.0999760196719,0.202362198335
18.63,0.0809330504562,0.201457652984
18.64,0.0333256274171,0.200886359595
18.65,0.0142826582014,0.200648318167
18.66,-0.0136867028341,0.20064533839
18.67,-0.00476031101425,0.200737573459
18.68,-0.00476031101425,0.200785176569
18.69,0.0142826582014,0.200737564833
18.7,0.0333256274171,0.200499523405
18.71,0.0714115658484,0.199975837439
18.72,0.0904545350641,0.199166506934
18.73,0.0904545350641,0.198261961584
18.74,0.0999760196719,0.19730980881
18.75,0.0999760196719,0.196310048613
18.76,0.0999760196719,0.195310288417
18.77,0.0999760196719,0.19431052822
18.78,0.0809330504562,0.193405982869
18.79,0.0904545350641,0.192549044942
18.8,0.0714115658484,0.191739714437
18.81,0.0714115658484,0.191025598779
18.82,0.0714115658484,0.19031148312
18.83,0.0714115658484,0.189597367462
18.84,0.0618900812406,0.188930859226
18.85,0.0618900812406,0.188311958414
18.86,0.0714115658484,0.187645450178
18.87,0.0714115658484,0.18693133452
18.88,0.0714115658484,0.186217218861
18.89,0.0809330504562,0.18545549578
18.9,0.0809330504562,0.184646165275
18.91,0.0999760196719,0.183741619925
18.92,0.0904545350641,0.182789467151
18.93,0.0999760196719,0.181837314377
18.94,0.0904545350641,0.180885161604
18.95,0.0809330504562,0.180028223676
18.96,0.0714115658484,0.179266500594
18.97,0.0714115658484,0.178552384936
18.98,0.0523685966327,0.177933484124
18.99,0.0618900812406,0.177362190734
19,0.0714115658484,0.176695682499
19.01,0.0714115658484,0.17598156684
19.02,0.0714115658484,0.175267451182
19.03,0.0904545350641,0.174458120677
19.04,0.0809330504562,0.17360118275
19.05,0.0904545350641,0.172744244822
19.06,0.0999760196719,0.171792092048
19.07,0.119018988888,0.170697117006
19.08,0.119018988888,0.169506927117
19.09,0.119018988888,0.168316737228
19.1,0.10949750428,0.167174154762
19.11,0.0714115658484,0.166269609411
19.12,0.0523685966327,0.165650708599
19.13,0.0714115658484,0.165031807787
19.14,0.0809330504562,0.164270084705
19.15,0.119018988888,0.163270324508
19.16,0.138061958103,0.161984919773
19.17,0.157104927319,0.160509085346
19.18,0.176147896535,0.158842821227
19.19,0.185669381142,0.157033734839
19.2,0.185669381142,0.155177041027
19.21,0.19519086575,0.153272739793
19.22,0.19519086575,0.151320831135
19.23,0.19519086575,0.149368922478
19.24,0.204712350358,0.147369406397
19.25,0.214233834966,0.145274675471
19.26,0.204712350358,0.143179944544
19.27,0.223755319574,0.141037606194
19.28,0.242798288789,0.138704838152
19.29,0.223755319574,0.136372070111
19.3,0.223755319574,0.134134516915
19.31,0.223755319574,0.131896963719
19.32,0.223755319574,0.129659410523
19.33,0.204712350358,0.127517072174
19.34,0.214233834966,0.125422341247
19.35,0.214233834966,0.123280002897
19.36,0.19519086575,0.121232879394
19.37,0.185669381142,0.119328578159
19.38,0.166626411927,0.117567099194
19.39,0.147583442711,0.115996049921
19.4,0.138061958103,0.114567822917
19.41,0.119018988888,0.113282418182
19.42,0.0999760196719,0.112187443139
19.43,0.0904545350641,0.111235290365
19.44,0.0904545350641,0.110330745015
19.45,0.0809330504562,0.109473807087
19.46,0.0809330504562,0.108664476583
19.47,0.0714115658484,0.107902753501
19.48,0.0904545350641,0.107093422996
19.49,0.0809330504562,0.106236485069
19.5,0.0714115658484,0.105474761987
19.51,0.0618900812406,0.104808253752
19.52,0.0618900812406,0.104189352939
19.53,0.0618900812406,0.103570452127
19.54,0.0714115658484,0.102903943892
19.55,0.0809330504562,0.10214222081
19.56,0.0428471120249,0.101523319998
19.57,-0.00476031101425,0.101332885993
19.58,-0.0327296720498,0.101520335908
19.59,-0.0327296720498,0.101847632628
19.6,-0.0232081874419,0.102127321926
19.61,-0.0136867028341,0.102311796377
19.62,0.0142826582014,0.1023088166
19.63,0.0333256274171,0.102070775172
19.64,0.0523685966327,0.101642304052
19.65,0.0714115658484,0.10102340324
19.66,0.0904545350641,0.100214072735
19.67,0.0714115658484,0.0994047422306
19.68,0.0809330504562,0.0986430191491
19.69,0.0714115658484,0.0978812960676
19.7,0.0714115658484,0.0971671804091
19.71,0.0523685966327,0.0965482795967
19.72,0.0428471120249,0.0960722010534
19.73,0.0333256274171,0.0956913373562
19.74,0.0333256274171,0.095358081082
19.75,0.0333256274171,0.0950248248078
19.76,0.0333256274171,0.0946915685337
19.77,0.0238041428092,0.0944059196825
19.78,0.0238041428092,0.0941678782544
19.79,0.0238041428092,0.0939298368263
19.8,0.0142826582014,0.0937394028213
19.81,0.00476117359358,0.0936441836623
19.82,0.00476117359358,0.0935965719264
19.83,-0.0136867028341,0.0936411995726
19.84,-0.0136867028341,0.0937780666009
19.85,-0.0232081874419,0.0939625410523
19.86,-0.0232081874419,0.0941946229267
19.87,-0.0327296720498,0.0944743122242
19.88,-0.0422511566576,0.0948492163677
19.89,-0.0422511566576,0.0952717279343
19.9,-0.0517726412654,0.0957418469239
19.91,-0.0517726412654,0.0962595733366
19.92,-0.0517726412654,0.0967772997492
19.93,-0.0517726412654,0.0972950261619
19.94,-0.0517726412654,0.0978127525745
19.95,-0.0517726412654,0.0983304789872
19.96,-0.0517726412654,0.0988482053998
19.97,-0.0517726412654,0.0993659318125
19.98,-0.0517726412654,0.0998836582251
19.99,-0.0517726412654,0.100401384638
20,-0.0517726412654,0.10091911105
