Vernier Format 2
fatigue_spirom3.cmbl 10/05/20 16:17 .
Latest
Tiempo	Tasa de Flujo	Volumen
t	Flujo	Vol
s	L/s	L

0	-0.0517726412654	-0
0.01	-0.0612941258732	0.000565333835693
0.02	-0.0517726412654	0.00113066767139
0.03	-0.0517726412654	0.00164839408404
0.04	-0.0517726412654	0.00216612049669
0.05	-0.0517726412654	0.00268384690935
0.06	-0.0517726412654	0.003201573322
0.07	-0.0422511566576	0.00367169231162
0.08	-0.0517726412654	0.00414181130123
0.09	-0.0517726412654	0.00465953771389
0.1	-0.0422511566576	0.0051296567035
0.11	-0.0422511566576	0.00555216827008
0.12	-0.0422511566576	0.00597467983665
0.13	-0.0422511566576	0.00639719140323
0.14	-0.0327296720498	0.00677209554677
0.15	-0.0327296720498	0.00709939226726
0.16	-0.0232081874419	0.00737908156472
0.17	-0.0517726412654	0.00775398570826
0.18	-0.0803370950889	0.00841453439003
0.19	-0.0803370950889	0.00921790534092
0.2	-0.0708156104811	0.00997366886877
0.21	-0.0612941258732	0.0106342175505
0.22	-0.0517726412654	0.0111995513862
0.23	-0.0422511566576	0.0116696703758
0.24	-0.0422511566576	0.0120921819424
0.25	-0.0422511566576	0.012514693509
0.26	-0.0422511566576	0.0129372050756
0.27	-0.0422511566576	0.0133597166422
0.28	-0.0327296720498	0.0137346207857
0.29	-0.0422511566576	0.0141095249292
0.3	-0.0517726412654	0.0145796439188
0.31	-0.0422511566576	0.0150497629085
0.32	-0.0612941258732	0.0155674893211
0.33	-0.0517726412654	0.0161328231568
0.34	-0.0517726412654	0.0166505495695
0.35	-0.0612941258732	0.0172158834052
0.36	-0.0517726412654	0.0177812172408
0.37	-0.0422511566576	0.0182513362305
0.38	-0.0517726412654	0.0187214552201
0.39	-0.0517726412654	0.0192391816327
0.4	-0.0422511566576	0.0197093006223
0.41	-0.0422511566576	0.0201318121889
0.42	-0.0327296720498	0.0205067163325
0.43	-0.0422511566576	0.020881620476
0.44	-0.0327296720498	0.0212565246195
0.45	-0.0327296720498	0.02158382134
0.46	-0.0422511566576	0.0219587254836
0.47	-0.0422511566576	0.0223812370501
0.48	-0.0422511566576	0.0228037486167
0.49	-0.0517726412654	0.0232738676063
0.5	-0.0517726412654	0.023791594019
0.51	-0.0612941258732	0.0243569278547
0.52	-0.0612941258732	0.0249698691134
0.53	-0.0612941258732	0.0255828103721
0.54	-0.0612941258732	0.0261957516309
0.55	-0.0517726412654	0.0267610854666
0.56	-0.0517726412654	0.0272788118792
0.57	-0.0517726412654	0.0277965382919
0.58	-0.0517726412654	0.0283142647045
0.59	-0.0517726412654	0.0288319911172
0.6	-0.0612941258732	0.0293973249529
0.61	-0.0612941258732	0.0300102662116
0.62	-0.0612941258732	0.0306232074703
0.63	-0.0612941258732	0.0312361487291
0.64	-0.0612941258732	0.0318490899878
0.65	-0.0708156104811	0.0325096386696
0.66	-0.0898585796967	0.0333130096205
0.67	-0.0993800643046	0.0342592028405
0.68	-0.108901548912	0.0353006109066
0.69	-0.0898585796967	0.0362944115496
0.7	-0.0898585796967	0.0371929973466
0.71	-0.0803370950889	0.0380439757205
0.72	-0.0612941258732	0.0387521318253
0.73	-0.0517726412654	0.039317465661
0.74	-0.0422511566576	0.0397875846506
0.75	-0.0422511566576	0.0402100962172
0.76	-0.0517726412654	0.0406802152068
0.77	-0.0517726412654	0.0411979416195
0.78	-0.0612941258732	0.0417632754552
0.79	-0.0708156104811	0.0424238241369
0.8	-0.0803370950889	0.0431795876648
0.81	-0.0803370950889	0.0439829586157
0.82	-0.0993800643046	0.0448815444126
0.83	-0.0803370950889	0.0457801302096
0.84	-0.0708156104811	0.0465358937374
0.85	-0.0517726412654	0.0471488349962
0.86	-0.0517726412654	0.0476665614088
0.87	-0.0517726412654	0.0481842878215
0.88	-0.0612941258732	0.0487496216572
0.89	-0.0422511566576	0.0492673480698
0.9	-0.0327296720498	0.0496422522134
0.91	-0.0327296720498	0.0499695489339
0.92	-0.0136867028341	0.0502016308083
0.93	-0.0136867028341	0.0503384978366
0.94	-0.0136867028341	0.050475364865
0.95	-0.0136867028341	0.0506122318933
0.96	-0.0136867028341	0.0507490989217
0.97	-0.0327296720498	0.0509811807961
0.98	-0.0517726412654	0.0514036923626
0.99	-0.0612941258732	0.0519690261983
1	-0.0803370950889	0.0526771823032
1.01	-0.108901548912	0.0536233755232
1.02	-0.156508971952	0.0549504281275
1.03	-0.232680848814	0.0568963772313
1.04	-0.34634357132	0.059791499332
1.05	-0.489165840438	0.0639690463908
1.06	-0.717086378238	0.0700003074841
1.07	-0.92655903961	0.0782185345734
1.08	-1.11639363898	0.0884332979663
1.09	-1.23065145427	0.100168523433
1.1	-1.38240011521	0.11323378128
1.11	-1.47761496129	0.127533856662
1.12	-1.6109157458	0.142976510198
1.13	-1.68649252987	0.159463551576
1.14	-1.82931479899	0.177042588221
1.15	-1.88644370664	0.195621380749
1.16	-1.98106345993	0.214958916582
1.17	-2.00010642914	0.234864766027
1.18	-2.00962791375	0.254913437741
1.19	-2.01914939836	0.275057324302
1.2	-2.03819236757	0.295344033132
1.21	-2.03819236757	0.315725956807
1.22	-2.10484275983	0.336441132444
1.23	-2.14292869826	0.357679989735
1.24	-2.17149315208	0.379252098986
1.25	-2.17149315208	0.400967030507
1.26	-2.1905361213	0.422777176874
1.27	-2.14292869826	0.444444500972
1.28	-2.15245018287	0.465921395378
1.29	-2.13340721365	0.48735068236
1.3	-2.11436424444	0.508589539651
1.31	-2.09532127522	0.529637967249
1.32	-2.03819236757	0.550305535463
1.33	-2.04771385218	0.570735066562
1.34	-2.02867088297	0.591116990237
1.35	-1.99058494453	0.611213269375
1.36	-2.00010642914	0.631166726243
1.37	-2.00010642914	0.651167790535
1.38	-1.99058494453	0.671121247403
1.39	-1.98106345993	0.690979489425
1.4	-1.99058494453	0.710837731448
1.41	-1.99058494453	0.730743580893
1.42	-2.01914939836	0.750792252607
1.43	-2.00962791375	0.770936139168
1.44	-1.98106345993	0.790889596036
1.45	-1.90548667585	0.810322346715
1.46	-1.93405112968	0.829520035743
1.47	-1.94357261428	0.848908154463
1.48	-1.90548667585	0.868153450913
1.49	-1.86740073742	0.88701788798
1.5	-1.85787925281	0.905644287931
1.51	-1.81979331438	0.924032650767
1.52	-1.81979331438	0.942230583911
1.53	-1.80075034517	0.960333302208
1.54	-1.76266440673	0.978150375968
1.55	-1.74362143752	0.995681805189
1.56	-1.69601401448	1.01287998245
1.57	-1.67697104526	1.02974490775
1.58	-1.65792807605	1.04641940335
1.59	-1.60139426119	1.06271601504
1.6	-1.58235129197	1.07863474281
1.61	-1.53474386894	1.09422021861
1.62	-1.51570089972	1.10947244245
1.63	-1.52522238433	1.12467705887
1.64	-1.53474386894	1.13997689014
1.65	-1.4966579305	1.15513389914
1.66	-1.47761496129	1.1700052636
1.67	-1.43000753825	1.18454337609
1.68	-1.43000753825	1.19884345148
1.69	-1.36335714599	1.2128102749
1.7	-1.32527120756	1.22625341667
1.71	-1.23065145427	1.23903302998
1.72	-1.18304403123	1.2511015074
1.73	-1.12591512359	1.26264630318
1.74	-1.01165730829	1.27333416534
1.75	-0.869430131963	1.28273960254
1.76	-0.688521924414	1.29052936282
1.77	-0.47964435583	1.29637019422
1.78	-0.223159364206	1.29988421282
1.79	0.0618900812406	1.30069055924
1.8	0.33741804208	1.29869401862
1.81	0.604019611099	1.29398683035
1.82	0.831940148899	1.28680703155
1.83	0.964645840621	1.27782410161
1.84	1.0598606867	1.26770156897
1.85	1.06938217131	1.25705535468
1.86	1.21220444042	1.24564742162
1.87	1.26933334807	1.23323973268
1.88	1.30682419371	1.22035894497
1.89	1.36395310136	1.20700505849
1.9	1.40203903979	1.19317509779
1.91	1.44012497822	1.1789642777
1.92	1.45916794744	1.16446781307
1.93	1.50677537048	1.14963809648
1.94	1.50677537048	1.13457034277
1.95	1.50677537048	1.11950258907
1.96	1.49725388587	1.10448244279
1.97	1.51629685509	1.08941468908
1.98	1.51629685509	1.07425172053
1.99	1.48773240126	1.05923157425
2	1.49725388587	1.04430664282
2.01	1.46868943205	1.02947692623
2.02	1.46868943205	1.01479003191
2.03	1.44012497822	1.00024595985
2.04	1.44012497822	0.985844710072
2.05	1.43060349362	0.971491067712
2.06	1.42108200901	0.957232640199
2.07	1.4115605244	0.943069427532
2.08	1.39251755518	0.929049037134
2.09	1.39251755518	0.915123861583
2.1	1.40203903979	0.901151078608
2.11	1.38299607058	0.887225903056
2.12	1.38299607058	0.87339594235
2.13	1.32586716293	0.859851626183
2.14	1.32586716293	0.846592954553
2.15	1.33538864754	0.833286675501
2.16	1.32586716293	0.819980396449
2.17	1.33538864754	0.806674117396
2.18	1.32586716293	0.793367838344
2.19	1.32586716293	0.780109166715
2.2	1.34491013215	0.766755280239
2.21	1.32586716293	0.753401393764
2.22	1.32586716293	0.740142722134
2.23	1.30682419371	0.726979265351
2.24	1.29730270911	0.713958630837
2.25	1.2877812245	0.701033211169
2.26	1.27885483268	0.688200030883
2.27	1.2877812245	0.675366850597
2.28	1.25981186346	0.662628885157
2.29	1.27885483268	0.649935551677
2.3	1.25981186346	0.637242218196
2.31	1.25029037886	0.624691706984
2.32	1.24076889425	0.612236410619
2.33	1.21220444042	0.599971543946
2.34	1.21220444042	0.587849499541
2.35	1.20268295582	0.57577506256
2.36	1.17411850199	0.563891055271
2.37	1.15507553278	0.552245085097
2.38	1.14555404817	0.540741937193
2.39	1.12651107895	0.529381611557
2.4	1.09794662513	0.518259323037
2.41	1.07890365591	0.507375071631
2.42	1.03129623288	0.496824072187
2.43	1.02177474827	0.486558717282
2.44	1.00273177905	0.476436184645
2.45	0.974167325228	0.466551689124
2.46	0.946197964193	0.456949862677
2.47	0.927154994977	0.447583097881
2.48	0.927154994977	0.438311547931
2.49	0.908112025762	0.429135212827
2.5	0.879547571938	0.420196914839
2.51	0.87002608733	0.411449046542
2.52	0.841461633507	0.402891607938
2.53	0.812897179683	0.394619813872
2.54	0.78433272586	0.386633664345
2.55	0.765289756644	0.378885551932
2.56	0.717682333605	0.371470691481
2.57	0.641510456742	0.364674727529
2.58	0.565933672668	0.358637506882
2.59	0.42311140355	0.353692281501
2.6	0.223755319574	0.350457947885
2.61	-0.0136867028341	0.349407604802
2.62	-0.289809756461	0.350925087098
2.63	-0.603423655732	0.355391254159
2.64	-0.869430131963	0.362755523097
2.65	-1.06878621594	0.372446604837
2.66	-1.23065145427	0.383943793188
2.67	-1.24017293888	0.396297915154
2.68	-1.3728786306	0.409363173001
2.69	-1.55378683815	0.423996500345
2.7	-1.58235129197	0.439677190996
2.71	-1.60139426119	0.455595918761
2.72	-1.63888510683	0.471797315601
2.73	-1.62995871501	0.488141534711
2.74	-1.59187277658	0.504250692169
2.75	-1.60139426119	0.520217027357
2.76	-1.58235129197	0.536135755123
2.77	-1.55378683815	0.551816445774
2.78	-1.56330832276	0.567401921578
2.79	-1.56330832276	0.583035004806
2.8	-1.56330832276	0.598668088034
2.81	-1.55378683815	0.614253563838
2.82	-1.53474386894	0.629696217374
2.83	-1.52522238433	0.64499604864
2.84	-1.52522238433	0.660248272483
2.85	-1.53474386894	0.67554810375
2.86	-1.50617941511	0.69075272017
2.87	-1.50617941511	0.705814514321
2.88	-1.53474386894	0.721019130741
2.89	-1.55378683815	0.736461784277
2.9	-1.57282980737	0.752094867504
2.91	-1.59187277658	0.767918380424
2.92	-1.55378683815	0.783646678498
2.93	-1.55378683815	0.799184546879
2.94	-1.53474386894	0.814627200415
2.95	-1.52522238433	0.829927031681
2.96	-1.52522238433	0.845179255524
2.97	-1.52522238433	0.860431479368
2.98	-1.53474386894	0.875731310634
2.99	-1.50617941511	0.890935927054
3	-1.4966579305	0.905950113782
3.01	-1.4966579305	0.920916693087
3.02	-1.4966579305	0.935883272392
3.03	-1.4966579305	0.950849851697
3.04	-1.4871364459	0.965768823579
3.05	-1.4871364459	0.980640188038
3.06	-1.4871364459	0.995511552497
3.07	-1.4871364459	1.01038291696
3.08	-1.44905050746	1.02506385172
3.09	-1.42048605364	1.03941153453
3.1	-1.41096456903	1.05356878764
3.11	-1.3728786306	1.06748800364
3.12	-1.35383566139	1.0811215751
3.13	-1.33479269217	1.09456471687
3.14	-1.31574972295	1.10781742894
3.15	-1.28778036192	1.12083507937
3.16	-1.21160848506	1.1333320236
3.17	-1.20208700045	1.14540050103
3.18	-1.1449580928	1.1571357265
3.19	-1.06878621594	1.16820444804
3.2	-0.974166462649	1.17841921143
3.21	-0.878951616571	1.18768480183
3.22	-0.755172316669	1.1958554215
3.23	-0.612945140339	1.20269600878
3.24	-0.393950994359	1.20773048945
3.25	-0.185073425775	1.21062561155
3.26	0.0714115658484	1.21119392085
3.27	0.33741804208	1.20914977281
3.28	0.632584064922	1.20429976228
3.29	0.841461633507	1.19692953379
3.3	0.983688809836	1.18780378157
3.31	1.04081771748	1.17768124893
3.32	1.08842514052	1.16703503464
3.33	1.20268295582	1.15557949416
3.34	1.2877812245	1.14312717326
3.35	1.33538864754	1.1300113239
3.36	1.40203903979	1.11632418546
3.37	1.44012497822	1.10211336537
3.38	1.47821091666	1.0875216859
3.39	1.48773240126	1.07269196931
3.4	1.5353398243	1.05757660818
3.41	1.55438279352	1.04212799509
3.42	1.52581833969	1.02672698943
3.43	1.51629685509	1.01151641345
3.44	1.51629685509	0.996353444902
3.45	1.50677537048	0.981238083774
3.46	1.47821091666	0.966313152339
3.47	1.49725388587	0.951435828326
3.48	1.50677537048	0.936415682044
3.49	1.50677537048	0.921347928339
3.5	1.50677537048	0.906280174635
3.51	1.50677537048	0.89121242093
3.52	1.44964646283	0.876430311763
3.53	1.46868943205	0.861838632289
3.54	1.4115605244	0.847437382507
3.55	1.40203903979	0.833369384686
3.56	1.40203903979	0.819348994288
3.57	1.40203903979	0.80532860389
3.58	1.39251755518	0.791355820915
3.59	1.37347458597	0.777525860209
3.6	1.37347458597	0.76379111435
3.61	1.37347458597	0.75005636849
3.62	1.36395310136	0.736369230053
3.63	1.34491013215	0.722824913886
3.64	1.33538864754	0.709423419987
3.65	1.32586716293	0.696117140935
3.66	1.31634567832	0.682906076729
3.67	1.34491013215	0.669599797676
3.68	1.31634567832	0.656293518624
3.69	1.32586716293	0.643082454418
3.7	1.2877812245	0.63001421248
3.71	1.2877812245	0.617136400235
3.72	1.25981186346	0.604398434796
3.73	1.26933334807	0.591752708738
3.74	1.25029037886	0.579154590103
3.75	1.22172592503	0.566794508584
3.76	1.20268295582	0.55467246418
3.77	1.15507553278	0.542883671737
3.78	1.16459701738	0.531285308986
3.79	1.15507553278	0.519686946235
3.8	1.12651107895	0.508279013176
3.81	1.10746810974	0.497109117233
3.82	1.12651107895	0.48593922129
3.83	1.10746810974	0.474769325346
3.84	1.08842514052	0.463789859095
3.85	1.08842514052	0.45290560769
3.86	1.08842514052	0.442021356284
3.87	1.06938217131	0.431232319725
3.88	1.07890365591	0.420490890589
3.89	1.05033920209	0.409844676299
3.9	1.03129623288	0.399436499124
3.91	1.02177474827	0.389171144219
3.92	1.02177474827	0.378953396736
3.93	1.01225326366	0.368783256676
3.94	0.983688809836	0.358803546309
3.95	0.964645840621	0.349061873056
3.96	0.946197964193	0.339507654032
3.97	0.917633510369	0.33018849666
3.98	0.860504602722	0.321297806094
3.99	0.812897179683	0.312930797182
4	0.746246787428	0.305135077346
4.01	0.641510456742	0.298196291126
4.02	0.537369218844	0.292301892748
4.03	0.413589918942	0.287547097059
4.04	0.214233834966	0.284407978289
4.05	-0.0327296720498	0.283500457475
4.06	-0.34634357132	0.285395823692
4.07	-0.679000439806	0.290522543747
4.08	-0.983687947257	0.298835985682
4.09	-1.18304403123	0.309669645575
4.1	-1.33479269217	0.322258829192
4.11	-1.40144308443	0.335940008075
4.12	-1.4871364459	0.350382905727
4.13	-1.58235129197	0.365730344416
4.14	-1.64840659144	0.381884133833
4.15	-1.64840659144	0.398368199747
4.16	-1.62043723041	0.414712418857
4.17	-1.62995871501	0.430964398584
4.18	-1.63888510683	0.447308617693
4.19	-1.66744956066	0.46384029103
4.2	-1.66744956066	0.480514786637
4.21	-1.67697104526	0.497236889667
4.22	-1.64840659144	0.51386377785
4.23	-1.64840659144	0.530347843764
4.24	-1.65792807605	0.546879517102
4.25	-1.65792807605	0.563458797862
4.26	-1.63888510683	0.579942863777
4.27	-1.64840659144	0.596379322268
4.28	-1.64840659144	0.612863388183
4.29	-1.64840659144	0.629347454097
4.3	-1.70553549909	0.64611716455
4.31	-1.73409995291	0.66331534181
4.32	-1.69601401448	0.680465911647
4.33	-1.75314292213	0.69771169633
4.34	-1.76266440673	0.715290732974
4.35	-1.73409995291	0.732774554772
4.36	-1.75314292213	0.750210769147
4.37	-1.68649252987	0.767408946407
4.38	-1.68649252987	0.784273871706
4.39	-1.66744956066	0.801043582159
4.4	-1.66744956066	0.817718077765
4.41	-1.62043723041	0.834157511721
4.42	-1.62995871501	0.850409491448
4.43	-1.63888510683	0.866753710557
4.44	-1.60139426119	0.882955107397
4.45	-1.60139426119	0.898969050009
4.46	-1.58235129197	0.914887777775
4.47	-1.57282980737	0.930663683271
4.48	-1.57282980737	0.946391981345
4.49	-1.54426535354	0.96197745715
4.5	-1.4966579305	0.97718207357
4.51	-1.4871364459	0.992101045452
4.52	-1.44905050746	1.00678198022
4.53	-1.43952902286	1.02122487787
4.54	-1.44905050746	1.03566777552
4.55	-1.40144308443	1.04992024348
4.56	-1.38240011521	1.06383945948
4.57	-1.34431417678	1.07747303094
4.58	-1.32527120756	1.09082095786
4.59	-1.27825887731	1.10383860829
4.6	-1.24969442349	1.11647837479
4.61	-1.18304403123	1.12864206706
4.62	-1.17352254663	1.14042489995
4.63	-1.13543660819	1.15196969573
4.64	-1.04022176212	1.16284798758
4.65	-0.955123493433	1.17282471386
4.66	-0.869430131963	1.18194748198
4.67	-0.783736770492	1.1902133165
4.68	-0.70756489363	1.19766982482
4.69	-0.612945140339	1.20427237499
4.7	-0.470122871222	1.20968771504
4.71	-0.34634357132	1.21377004726
4.72	-0.232680848814	1.21666516936
4.73	-0.0708156104811	1.21818265165
4.74	0.0999760196719	1.21803684961
4.75	0.252319773397	1.21627537064
4.76	0.404068434334	1.2129934296
4.77	0.527847734236	1.20833384876
4.78	0.65103194135	1.20243945038
4.79	0.78433272586	1.19526262705
4.8	0.879547571938	1.18694322556
4.81	0.936676479585	1.1778621053
4.82	1.07890365591	1.16778420462
4.83	1.17411850199	1.15651909383
4.84	1.25029037886	1.14439704943
4.85	1.30682419371	1.13161147657
4.86	1.35443161675	1.11830519751
4.87	1.38299607058	1.10461805908
4.88	1.43060349362	1.09055006126
4.89	1.45916794744	1.07610120405
4.9	1.48773240126	1.06136670231
4.91	1.47821091666	1.04653698572
4.92	1.47821091666	1.03175487655
4.93	1.47821091666	1.01697276738
4.94	1.49725388587	1.00209544337
4.95	1.49725388587	0.987122904513
4.96	1.46868943205	0.972293187923
4.97	1.44012497822	0.957749115872
4.98	1.44012497822	0.94334786609
4.99	1.44012497822	0.928946616307
5	1.43060349362	0.914592973948
5.01	1.43060349362	0.900286939012
5.02	1.44012497822	0.885933296653
5.03	1.43060349362	0.871579654294
5.04	1.42108200901	0.857321226781
5.05	1.44012497822	0.843015191844
5.06	1.39251755518	0.828851979177
5.07	1.38299607058	0.814974411049
5.08	1.39251755518	0.80109684292
5.09	1.39251755518	0.787171667368
5.1	1.39251755518	0.773246491816
5.11	1.35443161675	0.759511745957
5.12	1.35443161675	0.745967429789
5.13	1.32586716293	0.732565935891
5.14	1.32586716293	0.719307264261
5.15	1.2877812245	0.706239022324
5.16	1.25029037886	0.693548664307
5.17	1.24076889425	0.681093367942
5.18	1.25029037886	0.668638071576
5.19	1.21220444042	0.65632559748
5.2	1.23124740964	0.64410833823
5.21	1.23124740964	0.631795864133
5.22	1.23124740964	0.619483390037
5.23	1.23124740964	0.60717091594
5.24	1.20268295582	0.595001264113
5.25	1.19316147121	0.583022041978
5.26	1.1836399866	0.571138034689
5.27	1.15507553278	0.559444457092
5.28	1.11698959435	0.548084131456
5.29	1.10746810974	0.536961842936
5.3	1.07890365591	0.526029984108
5.31	1.06938217131	0.515288554972
5.32	1.05033920209	0.504689948105
5.33	1.04081771748	0.494234163507
5.34	1.00273177905	0.484016416024
5.35	0.983688809836	0.47408431308
5.36	0.983688809836	0.464247424981
5.37	0.983688809836	0.454410536883
5.38	0.955719448801	0.44471349559
5.39	0.936676479585	0.435251515948
5.4	0.889069056546	0.426122788267
5.41	0.850983118115	0.417422527394
5.42	0.822418664291	0.409055518482
5.43	0.822418664291	0.400831331839
5.44	0.812897179683	0.392654752619
5.45	0.822418664291	0.384478173399
5.46	0.812897179683	0.376301594179
5.47	0.812897179683	0.368172622382
5.48	0.803375695075	0.360091258009
5.49	0.793854210468	0.352105108481
5.5	0.78433272586	0.344214173799
5.51	0.765289756644	0.336466061387
5.52	0.746246787428	0.328908378666
5.53	0.736725302821	0.321493518215
5.54	0.727203818213	0.31417387261
5.55	0.698639364389	0.307044656697
5.56	0.689117879781	0.300105870476
5.57	0.679596395174	0.293262299101
5.58	0.670074910566	0.286513942573
5.59	0.660553425958	0.27986080089
5.6	0.65103194135	0.273302874053
5.61	0.641510456742	0.266840162063
5.62	0.641510456742	0.260425057496
5.63	0.632584064922	0.254054584887
5.64	0.613541095707	0.247823959084
5.65	0.594498126491	0.241783762973
5.66	0.584976641883	0.235886389131
5.67	0.565933672668	0.230131837559
5.68	0.537369218844	0.224615323101
5.69	0.499283280413	0.219432060605
5.7	0.480240311197	0.214534442647
5.71	0.42311140355	0.210017684073
5.72	0.375503980511	0.206024607153
5.73	0.33741804208	0.20245999704
5.74	0.261841258005	0.199463700539
5.75	0.19519086575	0.19717853992
5.76	0.0999760196719	0.195702705493
5.77	-0.0232081874419	0.195318866332
5.78	-0.175551941167	0.196312666975
5.79	-0.34634357132	0.198922144538
5.8	-0.546294748085	0.203385336135
5.81	-0.736129347453	0.209797456612
5.82	-0.917037555002	0.218063291125
5.83	-1.06878621594	0.227992409979
5.84	-1.18304403123	0.239251561215
5.85	-1.24969442349	0.251415253489
5.86	-1.4966579305	0.265147015259
5.87	-1.68649252987	0.281062767561
5.88	-1.81027182977	0.298546589359
5.89	-2.01914939836	0.317693695499
5.9	-2.16197166748	0.338599300829
5.91	-2.26670799816	0.360742699157
5.92	-2.38989220528	0.384025700174
5.93	-2.48510705135	0.408400696457
5.94	-2.65589868151	0.434105725121
5.95	-2.72254907376	0.460997963898
5.96	-2.78919946602	0.488556706597
5.97	-2.86537134288	0.516829560641
5.98	-2.96951258078	0.54600398026
5.99	-3.07424891146	0.576222787721
6	-3.1218563345	0.607203313951
6.01	-3.16946375754	0.638659914411
6.02	-3.30216944926	0.671018080445
6.03	-3.37834132613	0.704420634322
6.04	-3.38786281073	0.738251655006
6.05	-3.38786281073	0.772130283113
6.06	-3.4735561722	0.806437378028
6.07	-3.49259914142	0.841268154596
6.08	-3.52116359524	0.876336968279
6.09	-3.57829250289	0.91183424877
6.1	-3.63482631775	0.947899842873
6.11	-3.66339077157	0.98439092832
6.12	-3.68243374079	1.02112005088
6.13	-3.79669155608	1.05851567737
6.14	-3.6919552254	1.09595891127
6.15	-3.60626186393	1.13244999672
6.16	-3.63482631775	1.16865543763
6.17	-3.57829250289	1.20472103173
6.18	-3.70147671	1.2411198778
6.19	-3.75860561765	1.27842028943
6.2	-3.77764858687	1.31610156046
6.21	-3.71099819461	1.35354479436
6.22	-3.68243374079	1.39051195404
6.23	-3.62530483314	1.42705064691
6.24	-3.54020656446	1.4628782039
6.25	-3.56877101828	1.49842309181
6.26	-3.54020656446	1.53396797973
6.27	-3.61578334853	1.56974792929
6.28	-3.61578334853	1.60590576278
6.29	-3.73004116383	1.64263488534
6.3	-3.63482631775	1.67945922275
6.31	-3.51164211064	1.71519156489
6.32	-3.4735561722	1.7501175563
6.33	-3.51164211064	1.78504354772
6.34	-3.54972804907	1.82035039852
6.35	-3.50212062603	1.85560964189
6.36	-3.42594874917	1.89024998877
6.37	-3.37834132613	1.92427143914
6.38	-3.34025538769	1.95786442271
6.39	-3.37834132613	1.99145740628
6.4	-3.25515711901	2.02462489851
6.41	-3.2361141498	2.05708125485
6.42	-3.18850672676	2.08920435923
6.43	-3.16946375754	2.12099421166
6.44	-3.13137781911	2.15249841954
6.45	-3.10281336529	2.18366937546
6.46	-3.08377039607	2.21460229427
6.47	-3.01712000382	2.24510674627
6.48	-2.97903406539	2.27508751661
6.49	-2.97903406539	2.30487785727
6.5	-2.90345728131	2.334290314
6.51	-2.96951258078	2.36365516331
6.52	-2.85584985827	2.39278197551
6.53	-2.82728540445	2.42119765182
6.54	-2.78919946602	2.44928007617
6.55	-2.69398461994	2.4766959966
6.56	-2.66542016611	2.50349302053
6.57	-2.66542016611	2.53014722219
6.58	-2.59936486665	2.55647114736
6.59	-2.56127892822	2.58227436633
6.6	-2.52319298979	2.60769672592
6.61	-2.542235959	2.63302387067
6.62	-2.48510705135	2.65816058572
6.63	-2.46606408214	2.68291644138
6.64	-2.33276329763	2.70691057828
6.65	-2.1905361213	2.72952707538
6.66	-2.11436424444	2.75105157721
6.67	-1.99058494453	2.77157632315
6.68	-1.92452964507	2.7911518961
6.69	-1.78170737595	2.8096830812
6.7	-1.67697104526	2.82697647331
6.71	-1.55378683815	2.84313026273
6.72	-1.47761496129	2.85828727172
6.73	-1.29730184653	2.87216185576
6.74	-1.16400106202	2.88446837031
6.75	-1.03070027751	2.895441877
6.76	-0.888473101179	2.9050377439
6.77	-0.783736770492	2.91339879326
6.78	-0.669478955198	2.92066487188
6.79	-0.5653377173	2.92683895525
6.8	-0.441558417398	2.93187343592
6.81	-0.336822086712	2.93576533844
6.82	-0.185073425775	2.938374816
6.83	-0.0232081874419	2.93941622407
6.84	0.10949750428	2.93898477749
6.85	0.242798288789	2.93722329852
6.86	0.33741804208	2.93432221687
6.87	0.404068434334	2.93061478448
6.88	0.470718826589	2.92624084818
6.89	0.527847734236	2.92124801538
6.9	0.565933672668	2.91577910834
6.91	0.575455157275	2.91007216419
6.92	0.527847734236	2.90455564973
6.93	0.518326249628	2.89932477981
6.94	0.508804765021	2.89418912474
6.95	0.546890703452	2.8889106474
6.96	0.613541095707	2.8831084884
6.97	0.698639364389	2.8765475861
6.98	0.774811241252	2.86918033307
6.99	0.831940148899	2.86114657612
7	0.898590541154	2.85249392267
7.01	0.936676479585	2.84331758757
7.02	0.936676479585	2.83395082277
7.03	0.927154994977	2.8246316654
7.04	0.917633510369	2.81540772287
7.05	0.917633510369	2.80623138777
7.06	0.936676479585	2.79695983782
7.07	0.974167325228	2.7874056188
7.08	1.00273177905	2.77752112327
7.09	1.0598606867	2.76720816095
7.1	1.12651107895	2.75627630212
7.11	1.19316147121	2.74467793937
7.12	1.25029037886	2.73246068012
7.13	1.32586716293	2.71957989241
7.14	1.4115605244	2.70589275397
7.15	1.49725388587	2.69134868192
7.16	1.59246873195	2.67590006883
7.17	1.73469590828	2.65926424563
7.18	1.86799669279	2.64125078262
7.19	2.00070238451	2.62190728724
7.2	2.12448168441	2.60128136689
7.21	2.16256762284	2.57984612036
7.22	2.21969653049	2.55793479959
7.23	2.30479479917	2.53531234294
7.24	2.35240222221	2.51202635783
7.25	2.37144519143	2.48840712077
7.26	2.3428807376	2.46483549112
7.27	2.37144519143	2.44126386148
7.28	2.39048816064	2.41745419472
7.29	2.40953112986	2.39345409826
7.3	2.41905261447	2.36931117954
7.31	2.40953112986	2.34516826082
7.32	2.49522449133	2.32064448271
7.33	2.51426746054	2.29559702296
7.34	2.52378894515	2.27040674093
7.35	2.59936572923	2.24479096755
7.36	2.58984424462	2.21884491769
7.37	2.59936572923	2.19289886782
7.38	2.59936572923	2.16690521052
7.39	2.58984424462	2.14095916065
7.4	2.61840869844	2.11491789594
7.41	2.65649463687	2.08854337926
7.42	2.61840869844	2.06216886259
7.43	2.61840869844	2.0359847756
7.44	2.64697315227	2.00965786635
7.45	2.58984424462	1.98347377936
7.46	2.62793018305	1.95738490723
7.47	2.65649463687	1.93096278313
7.48	2.65649463687	1.90439783676
7.49	2.5809178528	1.87821077431
7.5	2.57139636819	1.8524492032
7.51	2.57139636819	1.82673523952
7.52	2.52378894515	1.80125931296
7.53	2.50474597594	1.77611663835
7.54	2.4571385529	1.75130721571
7.55	2.44761706829	1.7267834376
7.56	2.51426746054	1.70197401496
7.57	2.56187488358	1.67659330323
7.58	2.5809178528	1.65087933955
7.59	2.65649463687	1.6246922771
7.6	2.60888721384	1.59836536785
7.61	2.62793018305	1.57218128087
7.62	2.63745166766	1.54585437161
7.63	2.62793018305	1.51952746236
7.64	2.67553760609	1.49301012341
7.65	2.62793018305	1.46649278447
7.66	2.65649463687	1.44007066037
7.67	2.6850590907	1.41336289173
7.68	2.72314502913	1.38632187113
7.69	2.67553760609	1.35932845796
7.7	2.65649463687	1.33266829674
7.71	2.67553760609	1.30600813553
7.72	2.69458057531	1.27915754462
7.73	2.5809178528	1.25278005248
7.74	2.57139636819	1.22701848137
7.75	2.54283191437	1.20144733996
7.76	2.52378894515	1.17611423566
7.77	2.54283191437	1.15078113137
7.78	2.51426746054	1.12549563449
7.79	2.49522449133	1.10044817473
7.8	2.47618152211	1.07559114466
7.81	2.41905261447	1.05111497398
7.82	2.47618152211	1.0266388033
7.83	2.36192370682	1.00244827715
7.84	2.333359253	0.978971862355
7.85	2.21969653049	0.956206583437
7.86	2.21017504588	0.934057225555
7.87	2.2292180151	0.911860260251
7.88	2.20065356127	0.889710902369
7.89	2.20065356127	0.867704366756
7.9	2.16256762284	0.845888260835
7.91	2.12448168441	0.824453014299
7.92	2.05783129216	0.803541449416
7.93	2.06735277676	0.782915529072
7.94	1.97213793069	0.762718075534
7.95	1.90608263122	0.743326972725
7.96	1.85847520818	0.724504183528
7.97	1.82991075436	0.706062253715
7.98	1.85847520818	0.687620323903
7.99	1.81086778514	0.669273608936
8	1.75373887749	0.651450575623
8.01	1.74421739289	0.633960794271
8.02	1.68708848524	0.61680426488
8.03	1.66804551602	0.600028594874
8.04	1.6394810622	0.583490961983
8.05	1.61091660838	0.56723897363
8.06	1.56390427813	0.551364869197
8.07	1.52581833969	0.535916256108
8.08	1.50677537048	0.520753287557
8.09	1.46868943205	0.505875963545
8.1	1.43060349362	0.491379498916
8.11	1.39251755518	0.477263893672
8.12	1.36395310136	0.46348154039
8.13	1.34491013215	0.449937224222
8.14	1.32586716293	0.436583337747
8.15	1.26933334807	0.423607335192
8.16	1.23124740964	0.411104431403
8.17	1.17411850199	0.399077601845
8.18	1.11698959435	0.387622061363
8.19	1.08842514052	0.376594987689
8.2	1.0598606867	0.365853558553
8.21	1.05033920209	0.355302559109
8.22	1.05033920209	0.344799167088
8.23	1.05033920209	0.334295775067
8.24	1.03129623288	0.323887597892
8.25	1.03129623288	0.313574635564
8.26	1.02177474827	0.303309280658
8.27	1.01225326366	0.293139140598
8.28	0.993210294444	0.283111822808
8.29	0.974167325228	0.273274934709
8.3	0.964645840621	0.26358086888
8.31	0.946197964193	0.254026649856
8.32	0.908112025762	0.244755099906
8.33	0.87002608733	0.235864409341
8.34	0.831940148899	0.22735457816
8.35	0.793854210468	0.219225606363
8.36	0.746246787428	0.211525101373
8.37	0.689117879781	0.204348278037
8.38	0.632584064922	0.197739768314
8.39	0.594498126491	0.191604357357
8.4	0.537369218844	0.18594502063
8.41	0.470718826589	0.180904580403
8.42	0.385025465119	0.176625858944
8.43	0.290405711828	0.17324870306
8.44	0.185669381142	0.170868327595
8.45	0.0999760196719	0.169440100591
8.46	-0.0136867028341	0.169008654006
8.47	-0.127944518128	0.169716810111
8.48	-0.232680848814	0.171519936946
8.49	-0.336822086712	0.174367451624
8.5	-0.412993963575	0.178116531875
8.51	-0.460601386614	0.182484508626
8.52	-0.489165840438	0.187233344761
8.53	-0.498687325045	0.192172610589
8.54	-0.5653377173	0.1974927358
8.55	-0.574859201908	0.203193720396
8.56	-0.593902171124	0.209037527262
8.57	-0.631988109555	0.215166978665
8.58	-0.698043409022	0.221817136258
8.59	-0.821822708924	0.229416466848
8.6	-1.01165730829	0.238583866934
8.61	-1.23065145427	0.249795410746
8.62	-1.40144308443	0.26295588344
8.63	-1.58235129197	0.277874855322
8.64	-1.78170737595	0.294695148662
8.65	-1.93405112968	0.31327394119
8.66	-2.02867088297	0.333087551253
8.67	-2.10484275983	0.353755119467
8.68	-2.11436424444	0.374851154488
8.69	-2.11436424444	0.395994796933
8.7	-2.14292869826	0.417281261646
8.71	-2.05723533679	0.438282081821
8.72	-2.09532127522	0.459044864881
8.73	-1.99058494453	0.47947439598
8.74	-1.98106345993	0.499332638003
8.75	-1.99058494453	0.519190880025
8.76	-1.95309409889	0.538909275242
8.77	-1.94357261428	0.558392608808
8.78	-1.90548667585	0.577637905258
8.79	-1.86740073742	0.596502342325
8.8	-1.90548667585	0.615366779391
8.81	-1.88644370664	0.634326431304
8.82	-1.88644370664	0.65319086837
8.83	-1.86740073742	0.67196009059
8.84	-1.86740073742	0.690634097964
8.85	-1.89596519124	0.709450927608
8.86	-1.86740073742	0.728267757251
8.87	-1.87692222203	0.746989372048
8.88	-1.86740073742	0.765710986846
8.89	-1.8388362836	0.784242171951
8.9	-1.88644370664	0.802868571902
8.91	-1.90548667585	0.821828223814
8.92	-1.85787925281	0.840645053458
8.93	-1.8388362836	0.85912863114
8.94	-1.8388362836	0.877516993976
8.95	-1.8388362836	0.895905356812
8.96	-1.81979331438	0.914198504802
8.97	-1.80075034517	0.932301223099
8.98	-1.75314292213	0.950070689436
8.99	-1.77218589134	0.967697333503
9	-1.81027182977	0.985609622109
9.01	-1.79122886056	1.00361712556
9.02	-1.79122886056	1.02152941417
9.03	-1.75314292213	1.03925127308
9.04	-1.65792807605	1.05630662807
9.05	-1.67697104526	1.07298112368
9.06	-1.58235129197	1.08927773536
9.07	-1.54426535354	1.10491081859
9.08	-1.53474386894	1.1203058647
9.09	-1.52522238433	1.13560569597
9.1	-1.4871364459	1.15066749012
9.11	-1.44905050746	1.16534842489
9.12	-1.41096456903	1.17964850027
9.13	-1.3728786306	1.19356771627
9.14	-1.34431417678	1.2071536803
9.15	-1.28778036192	1.220314153
9.16	-1.2592159081	1.23304913435
9.17	-1.19256551584	1.24530804147
9.18	-1.11639363898	1.25685283724
9.19	-1.00213582368	1.26744548456
9.2	-0.869430131963	1.27680331433
9.21	-0.745650832061	1.28487871915
9.22	-0.536773263477	1.29129083963
9.23	-0.289809756461	1.29542375473
9.24	-0.0327296720498	1.29703645187
9.25	0.261841258005	1.29589089394
9.26	0.565933672668	1.29175201929
9.27	0.831940148899	1.28476265018
9.28	1.02177474827	1.2754940757
9.29	1.17411850199	1.26451460945
9.3	1.25981186346	1.25234495762
9.31	1.46868943205	1.23870245114
9.32	1.59246873195	1.22339666032
9.33	1.69660996985	1.20695126681
9.34	1.80134630053	1.18946148546
9.35	1.81086778514	1.17140041503
9.36	1.86799669279	1.15300609264
9.37	1.89656114661	1.13418330344
9.38	1.91560411583	1.11512247713
9.39	1.86799669279	1.09620447309
9.4	1.89656114661	1.07738168389
9.41	1.887039662	1.05846367985
9.42	1.86799669279	1.03968849808
9.43	1.82991075436	1.02119896084
9.44	1.85847520818	1.00275703103
9.45	1.82038926975	0.984362708638
9.46	1.81086778514	0.966206423363
9.47	1.81086778514	0.948097745512
9.48	1.79182481593	0.930084282506
9.49	1.77278184671	0.912261249193
9.5	1.78230333132	0.894485823303
9.51	1.75373887749	0.876805612259
9.52	1.74421739289	0.859315830907
9.53	1.72517442367	0.841968871824
9.54	1.71565293906	0.824764735011
9.55	1.68708848524	0.807751027889
9.56	1.65852403142	0.791022965306
9.57	1.64900254681	0.774485332415
9.58	1.59246873195	0.758277976021
9.59	1.58294724734	0.742400896124
9.6	1.59246873195	0.726523816228
9.61	1.55438279352	0.710789558601
9.62	1.5353398243	0.695340945511
9.63	1.50677537048	0.680130369538
9.64	1.47821091666	0.665205438102
9.65	1.45916794744	0.650518543781
9.66	1.40203903979	0.636212508845
9.67	1.40203903979	0.622192118447
9.68	1.36395310136	0.608362157742
9.69	1.35443161675	0.594770234151
9.7	1.31634567832	0.581416347676
9.71	1.32586716293	0.568205283469
9.72	1.2877812245	0.555137041532
9.73	1.27885483268	0.542303861246
9.74	1.24076889425	0.529705742612
9.75	1.23124740964	0.517345661092
9.76	1.23124740964	0.505033186996
9.77	1.1836399866	0.492958750015
9.78	1.17411850199	0.481169957572
9.79	1.17411850199	0.469428772552
9.8	1.13603256356	0.457878017224
9.81	1.13603256356	0.446517691588
9.82	1.09794662513	0.435347795645
9.83	1.0598606867	0.424558759086
9.84	1.01225326366	0.414198189334
9.85	1.01225326366	0.404075656697
9.86	0.983688809836	0.39409594633
9.87	0.964645840621	0.384354273078
9.88	0.955719448801	0.374752446631
9.89	0.946197964193	0.365242859566
9.9	0.917633510369	0.355923702193
9.91	0.889069056546	0.346890189358
9.92	0.860504602722	0.338142321062
9.93	0.822418664291	0.329727704727
9.94	0.78433272586	0.321693947776
9.95	0.765289756644	0.313945835364
9.96	0.736725302821	0.306435760066
9.97	0.670074910566	0.299401758999
9.98	0.604019611099	0.293031286391
9.99	0.489761795805	0.287562379356
10	0.394546949727	0.283140835629
10.01	0.299927196436	0.279668464898
10.02	0.176147896535	0.277288089433
10.03	0.0618900812406	0.276097899544
10.04	-0.0517726412654	0.276047312344
10.05	-0.185073425775	0.27723154268
10.06	-0.289809756461	0.279605958591
10.07	-0.412993963575	0.283119977191
10.08	-0.536773263477	0.287868813326
10.09	-0.622466624947	0.293665012768
10.1	-0.688521924414	0.300219955515
10.11	-0.764693801277	0.307486034144
10.12	-0.840865678139	0.315513831541
10.13	-0.878951616571	0.324112918014
10.14	-0.907516070394	0.333045256449
10.15	-0.992614339077	0.342545908496
10.16	-1.04022176212	0.352710089002
10.17	-1.11639363898	0.363493166008
10.18	-1.23065145427	0.375228391474
10.19	-1.29730184653	0.387868157978
10.2	-1.39192159982	0.40131427521
10.21	-1.46809347668	0.415614350592
10.22	-1.58235129197	0.430866574436
10.23	-1.68649252987	0.447210793545
10.24	-1.79122886056	0.464599400497
10.25	-1.85787925281	0.482844941064
10.26	-1.94357261428	0.501852200399
10.27	-1.94357261428	0.521287926542
10.28	-1.95309409889	0.540771260108
10.29	-2.00962791375	0.560584870171
10.3	-1.96202049071	0.580443112193
10.31	-1.93405112968	0.599923470295
10.32	-1.89596519124	0.6190735519
10.33	-1.90548667585	0.638080811235
10.34	-1.90548667585	0.657135677994
10.35	-1.86740073742	0.67600011506
10.36	-1.8388362836	0.694531300165
10.37	-1.82931479899	0.712872055578
10.38	-1.81979331438	0.731117596145
10.39	-1.79122886056	0.74917270702
10.4	-1.77218589134	0.766989780779
10.41	-1.76266440673	0.78466403227
10.42	-1.74362143752	0.802195461491
10.43	-1.75314292213	0.819679283289
10.44	-1.76266440673	0.837258319934
10.45	-1.79122886056	0.85502778627
10.46	-1.78170737595	0.872892467453
10.47	-1.78170737595	0.890709541212
10.48	-1.75314292213	0.908383792702
10.49	-1.76266440673	0.925962829347
10.5	-1.75314292213	0.943541865991
10.51	-1.75314292213	0.961073295212
10.52	-1.77218589134	0.97869993928
10.53	-1.75314292213	0.996326583347
10.54	-1.75314292213	1.01385801257
10.55	-1.74362143752	1.03134183437
10.56	-1.74362143752	1.04877804874
10.57	-1.73409995291	1.06616665569
10.58	-1.73409995291	1.08350765522
10.59	-1.73409995291	1.10084865475
10.6	-1.66744956066	1.11785640232
10.61	-1.6109157458	1.13424822885
10.62	-1.57282980737	1.15016695662
10.63	-1.56330832276	1.16584764727
10.64	-1.52522238433	1.1812903008
10.65	-1.52522238433	1.19654252465
10.66	-1.4871364459	1.2116043188
10.67	-1.43000753825	1.22619003872
10.68	-1.40144308443	1.24034729183
10.69	-1.3728786306	1.25421890041
10.7	-1.34431417678	1.26780486444
10.71	-1.28778036192	1.28096533714
10.72	-1.24969442349	1.29365271107
10.73	-1.22112996966	1.30600683303
10.74	-1.16400106202	1.31793248819
10.75	-1.11639363898	1.32933446169
10.76	-1.04022176212	1.3401175387
10.77	-1.0211787929	1.35042454148
10.78	-0.955123493433	1.36030605291
10.79	-0.917037555002	1.36966685815
10.8	-0.840865678139	1.37845637431
10.81	-0.774215285885	1.38653177913
10.82	-0.717086378238	1.39398828746
10.83	-0.631988109555	1.40073365989
10.84	-0.546294748085	1.40662507418
10.85	-0.441558417398	1.41156434001
10.86	-0.355865055928	1.41555145738
10.87	-0.261245302638	1.41863700917
10.88	-0.166030456559	1.42077338797
10.89	-0.0803370950889	1.42200522572
10.9	0.0333256274171	1.42224028306
10.91	0.166626411927	1.42124052287
10.92	0.318375072864	1.41881551544
10.93	0.461197341981	1.41491765337
10.94	0.604019611099	1.4095915686
10.95	0.746246787428	1.40284023661
10.96	0.87002608733	1.39475887224
10.97	0.917633510369	1.38582057425
10.98	1.02177474827	1.37612353295
10.99	1.14555404817	1.36528688897
11	1.23124740964	1.35340288168
11.01	1.30682419371	1.34071252367
11.02	1.36395310136	1.32735863719
11.03	1.42108200901	1.31343346164
11.04	1.46868943205	1.29898460443
11.05	1.50677537048	1.28410728042
11.06	1.54486130891	1.26884909702
11.07	1.58294724734	1.25321005424
11.08	1.61091660838	1.23724073496
11.09	1.62995957759	1.22103635403
11.1	1.62043809298	1.20478436568
11.11	1.59246873195	1.18871983156
11.12	1.62995957759	1.17260769001
11.13	1.6394810622	1.15626048681
11.14	1.66804551602	1.13972285392
11.15	1.6394810622	1.12318522103
11.16	1.64900254681	1.10674280298
11.17	1.6394810622	1.09030038494
11.18	1.6394810622	1.07390557432
11.19	1.62995957759	1.05755837112
11.2	1.62043809298	1.04130638276
11.21	1.59246873195	1.02524184864
11.22	1.58294724734	1.00936476874
11.23	1.57342576273	0.993582903692
11.24	1.56390427813	0.977896253488
11.25	1.56390427813	0.962257210707
11.26	1.54486130891	0.946713382771
11.27	1.5353398243	0.931312377105
11.28	1.50677537048	0.916101801131
11.29	1.50677537048	0.901034047427
11.3	1.50677537048	0.885966293722
11.31	1.48773240126	0.870993754863
11.32	1.47821091666	0.856164038273
11.33	1.46868943205	0.84142953653
11.34	1.42108200901	0.826980679325
11.35	1.36395310136	0.813055503773
11.36	1.36395310136	0.799415972759
11.37	1.35443161675	0.785824049169
11.38	1.32586716293	0.77242255527
11.39	1.34491013215	0.759068668795
11.4	1.31634567832	0.745762389742
11.41	1.29730270911	0.732694147805
11.42	1.2877812245	0.719768728137
11.43	1.29730270911	0.706843308469
11.44	1.2877812245	0.693917888801
11.45	1.25981186346	0.681179923361
11.46	1.23124740964	0.668724626996
11.47	1.24076889425	0.656364545476
11.48	1.20268295582	0.644147286226
11.49	1.20268295582	0.632120456668
11.5	1.19316147121	0.620141234533
11.51	1.17411850199	0.608304834667
11.52	1.15507553278	0.596658864493
11.53	1.11698959435	0.585298538857
11.54	1.08842514052	0.574271465183
11.55	1.07890365591	0.563434821201
11.56	1.07890365591	0.552645784642
11.57	1.09794662513	0.541761533236
11.58	1.06938217131	0.530924889254
11.59	1.06938217131	0.520231067541
11.6	1.0598606867	0.509584853251
11.61	1.03129623288	0.499129068653
11.62	1.01225326366	0.48891132117
11.63	1.02177474827	0.478741181111
11.64	0.983688809836	0.46871386332
11.65	0.983688809836	0.458876975222
11.66	0.974167325228	0.449087694547
11.67	0.955719448801	0.439438260676
11.68	0.936676479585	0.429976281035
11.69	0.917633510369	0.420704731085
11.7	0.908112025762	0.411576003404
11.71	0.879547571938	0.402637705416
11.72	0.87002608733	0.393889837119
11.73	0.860504602722	0.385237183669
11.74	0.860504602722	0.376632137642
11.75	0.850983118115	0.368074699038
11.76	0.831940148899	0.359660082703
11.77	0.803375695075	0.351483503483
11.78	0.774811241252	0.343592568801
11.79	0.736725302821	0.336034886081
11.8	0.698639364389	0.328858062745
11.81	0.698639364389	0.321871669101
11.82	0.698639364389	0.314885275457
11.83	0.698639364389	0.307898881813
11.84	0.698639364389	0.300912488169
11.85	0.679596395174	0.294021309371
11.86	0.679596395174	0.28722534542
11.87	0.660553425958	0.280524596314
11.88	0.65103194135	0.273966669477
11.89	0.632584064922	0.267548589446
11.9	0.604019611099	0.261365571066
11.91	0.604019611099	0.255325374955
11.92	0.584976641883	0.24938039369
11.93	0.565933672668	0.243625842117
11.94	0.55641218806	0.238014112814
11.95	0.546890703452	0.232497598356
11.96	0.546890703452	0.227028691321
11.97	0.527847734236	0.221654999133
11.98	0.527847734236	0.216376521791
11.99	0.489761795805	0.21128847414
12	0.470718826589	0.206486071029
12.01	0.42311140355	0.202016919878
12.02	0.385025465119	0.197976235534
12.03	0.318375072864	0.194459232845
12.04	0.214233834966	0.191796188305
12.05	0.0714115658484	0.190367961301
12.06	-0.0898585796967	0.190460196371
12.07	-0.299331241069	0.192406145474
12.08	-0.536773263477	0.196586667997
12.09	-0.774215285885	0.203141610744
12.1	-0.992614339077	0.211975758869
12.11	-1.18304403123	0.22285405072
12.12	-1.34431417678	0.23549084176
12.13	-1.55378683815	0.249981346835
12.14	-1.8388362836	0.266944462444
12.15	-2.03819236757	0.2863296057
12.16	-2.24766502895	0.307758892682
12.17	-2.44702111292	0.331232323392
12.18	-2.58984338204	0.356416645866
12.19	-2.72254907376	0.382978608145
12.2	-2.77967798141	0.410489743421
12.21	-2.8939357967	0.438857812312
12.22	-3.01712000382	0.468413091314
12.23	-3.09329188068	0.498965150737
12.24	-3.13137781911	0.530088499236
12.25	-3.13137781911	0.561402277427
12.26	-3.21707118058	0.593144522425
12.27	-3.2361141498	0.625410449077
12.28	-3.27360499544	0.657959044803
12.29	-3.2361141498	0.69050764053
12.3	-3.37834132613	0.723579917909
12.31	-3.4735561722	0.757839405401
12.32	-3.45451320299	0.792479752277
12.33	-3.51164211064	0.827310528845
12.34	-3.50212062603	0.862379342528
12.35	-3.45451320299	0.897162511673
12.36	-3.53068507985	0.932088503088
12.37	-3.59674037932	0.967725630384
12.38	-3.63482631775	1.00388346387
12.39	-3.73004116383	1.04070780128
12.4	-3.76812710226	1.07819864261
12.41	-3.65386928697	1.11530862455
12.42	-3.79669155608	1.15256142877
12.43	-3.77764858687	1.19043312948
12.44	-3.85382046373	1.22859047474
12.45	-3.96748318624	1.26769699299
12.46	-4.09126248614	1.30799072135
12.47	-4.18647733222	1.34937942044
12.48	-4.30014005472	1.39181250737
12.49	-4.2715756009	1.43467108565
12.5	-4.13886990918	1.4767233132
12.51	-4.11982693996	1.51801679745
12.52	-4.22456327065	1.5597387485
12.53	-4.2715756009	1.60221944286
12.54	-4.25253263168	1.64483998402
12.55	-4.31918302394	1.6876985623
12.56	-4.22456327065	1.73041729377
12.57	-4.30966153933	1.77308841782
12.58	-4.23348966247	1.81580417383
12.59	-4.31918302394	1.85856753726
12.6	-4.36679044698	1.90199740462
12.61	-4.44296232384	1.94604616847
12.62	-4.24301114707	1.98947603583
12.63	-4.08174100153	2.03109979657
12.64	-4.09126248614	2.07196481401
12.65	-4.17695584761	2.11330590568
12.66	-4.23348966247	2.15535813323
12.67	-4.14839139378	2.19726753851
12.68	-4.13886990918	2.23870384502
12.69	-4.17695584761	2.28028297381
12.7	-4.01509060927	2.32124320609
12.71	-3.91035427859	2.36087043053
12.72	-3.76812710226	2.39926283744
12.73	-3.70147671	2.4366108565
12.74	-3.74908413304	2.47386366071
12.75	-3.63482631775	2.51078321297
12.76	-3.48307765681	2.54637273284
12.77	-3.35929835691	2.58058461291
12.78	-3.10281336529	2.61289517152
12.79	-3.07424891146	2.6437804829
12.8	-2.97903406539	2.67404689779
12.81	-2.74159204298	2.70265002833
12.82	-2.63685571229	2.72954226711
12.83	-2.44702111292	2.75496165123
12.84	-2.2946773592	2.77867014359
12.85	-2.10484275983	2.80066774419
12.86	-1.95309409889	2.82095742848
12.87	-1.79122886056	2.83967904328
12.88	-1.62995871501	2.85678498116
12.89	-1.3728786306	2.87179916788
12.9	-1.19256551584	2.88462638862
12.91	-1.04974324672	2.89583793243
12.92	-0.897994585786	2.90557662159
12.93	-0.755172316669	2.9138424561
12.94	-0.584380686516	2.92054022112
12.95	-0.441558417398	2.92566991664
12.96	-0.280288271853	2.92927915009
12.97	-0.127944518128	2.93132031404
12.98	0.0333256274171	2.93179340849
12.99	0.157104927319	2.93084125572
13	0.271362742613	2.92869891737
13.01	0.356461011295	2.9255597986
13.02	0.413589918942	2.92170954394
13.03	0.451675857374	2.91738321506
13.04	0.470718826589	2.91277124164
13.05	0.489761795805	2.90796883853
13.06	0.527847734236	2.90288079088
13.07	0.518326249628	2.89764992096
13.08	0.489761795805	2.89260948073
13.09	0.489761795805	2.88771186278
13.1	0.480240311197	2.88286185224
13.11	0.480240311197	2.87805944913
13.12	0.508804765021	2.87311422375
13.13	0.565933672668	2.86774053156
13.14	0.641510456742	2.86170331091
13.15	0.679596395174	2.85509777665
13.16	0.670074910566	2.84834942012
13.17	0.679596395174	2.8416010636
13.18	0.679596395174	2.83480509964
13.19	0.689117879781	2.82796152827
13.2	0.727203818213	2.82087991978
13.21	0.78433272586	2.81332223706
13.22	0.87002608733	2.80505044299
13.23	0.983688809836	2.79578186851
13.24	1.09794662513	2.78537369133
13.25	1.21220444042	2.773822936
13.26	1.35443161675	2.76098975572
13.27	1.47821091666	2.74682654305
13.28	1.6394810622	2.73123808316
13.29	1.82038926975	2.7139387315
13.3	1.96261644608	2.69502370292
13.31	2.08639574598	2.67477864196
13.32	2.21969653049	2.65324818058
13.33	2.31431628378	2.6305781165
13.34	2.39048816064	2.60705409428
13.35	2.43809558368	2.58291117556
13.36	2.51426746054	2.55814936034
13.37	2.59936572923	2.53258119439
13.38	2.64697315227	2.50634949998
13.39	2.77075245217	2.47926087196
13.4	2.77075245217	2.45155334744
13.41	2.77075245217	2.42384582292
13.42	2.75170948295	2.39623351324
13.43	2.73266651374	2.36881163326
13.44	2.8088383906	2.34110410874
13.45	2.88501026746	2.31263486545
13.46	2.88501026746	2.28378476277
13.47	2.95106556693	2.2546043836
13.48	2.9129796285	2.22528415762
13.49	2.9129796285	2.19615436134
13.5	2.83740284442	2.16740244897
13.51	2.85644581364	2.13893320568
13.52	2.88501026746	2.11022592528
13.53	2.85644581364	2.08151864487
13.54	2.82788135982	2.05309700901
13.55	2.81835987521	2.02486580283
13.56	2.78979542138	1.99682502635
13.57	2.9129796285	1.9683111511
13.58	2.88501026746	1.93932120162
13.59	2.97010853614	1.9100456076
13.6	2.96058705154	1.88039212966
13.61	3.00819447458	1.85054822203
13.62	3.11293080526	1.81994259563
13.63	3.20814565134	1.78833721335
13.64	3.28372243542	1.75587787291
13.65	3.39798025071	1.72246935948
13.66	3.3884587661	1.6885371644
13.67	3.42654470453	1.65446214705
13.68	3.5027165814	1.61981584062
13.69	3.60685781929	1.58426796861
13.7	3.68302969616	1.54781853104
13.71	3.71159414998	1.51084541181
13.72	3.75920157302	1.47349143319
13.73	3.75920157302	1.43589941746
13.74	3.62590078851	1.39897390565
13.75	3.72111563459	1.36223882354
13.76	3.7401586038	1.32493245235
13.77	3.7306371192	1.28757847373
13.78	3.72111563459	1.25031970996
13.79	3.75920157302	1.21291812392
13.8	3.64494375772	1.17589739727
13.81	3.56877188086	1.13982881908
13.82	3.54080251983	1.10428094707
13.83	3.52175955061	1.06896813672
13.84	3.44558767375	1.0341314006
13.85	3.41702321992	0.999818346131
13.86	3.49319509679	0.965267254548
13.87	3.30276540463	0.931287452041
13.88	3.23611501238	0.898593049956
13.89	3.23611501238	0.866231899832
13.9	3.10340932065	0.834534278167
13.91	3.02723744379	0.803881044344
13.92	2.96058705154	0.773941921868
13.93	2.84692432903	0.744904364965
13.94	2.74218799834	0.716958803328
13.95	2.6850590907	0.689822567883
13.96	2.53331042976	0.663730720281
13.97	2.52378894515	0.638445223406
13.98	2.50474597594	0.613302548801
13.99	2.42857409907	0.588635948425
14	2.42857409907	0.564350207435
14.01	2.35240222221	0.540445325828
14.02	2.333359253	0.517016518452
14.03	2.31431628378	0.493778140768
14.04	2.40953112986	0.4701589037
14.05	2.41905261447	0.446015984979
14.06	2.43809558368	0.421730243988
14.07	2.40953112986	0.39749211042
14.08	2.40000964525	0.373444406545
14.09	2.39048816064	0.349491917515
14.1	2.39048816064	0.325587035909
14.11	2.2292180151	0.30248850503
14.12	2.20065356127	0.280339147148
14.13	2.07687426137	0.258951508035
14.14	1.98165941529	0.238658839652
14.15	1.90608263122	0.219220129419
14.16	1.93464708504	0.200016480838
14.17	1.92512560044	0.18071761741
14.18	1.96261644608	0.161278907178
14.19	1.97213793069	0.141605135294
14.2	2.06735277676	0.121407681757
14.21	2.21969653049	0.0999724352205
14.22	2.3428807376	0.07715954888
14.23	2.47618152211	0.0530642375815
14.24	2.67553760609	0.0273056419405
14.25	2.71362354452	0.000359836187427
14.26	2.77075245217	-0.027062043796
14.27	2.78027393678	-0.0548171757408
14.28	2.49522449133	-0.0811946678813
14.29	2.1149601998	-0.104245591337
14.3	1.89656114661	-0.124303198069
14.31	1.79182481593	-0.142745127882
14.32	1.68708848524	-0.160139694388
14.33	1.61091660838	-0.176629719856
14.34	1.55438279352	-0.192456216865
14.35	1.5353398243	-0.207904829954
14.36	1.46868943205	-0.222924976236
14.37	1.43060349362	-0.237421440864
14.38	1.39251755518	-0.251537046108
14.39	1.34491013215	-0.265224184545
14.4	1.33538864754	-0.278625678443
14.41	1.31634567832	-0.291884350073
14.42	1.27885483268	-0.304860352628
14.43	1.22172592503	-0.317363256416
14.44	1.19316147121	-0.329437693398
14.45	1.14555404817	-0.341131270994
14.46	1.13603256356	-0.352539204053
14.47	1.07890365591	-0.36361388515
14.48	1.07890365591	-0.37440292171
14.49	1.02177474827	-0.38490631373
14.5	1.02177474827	-0.395124061213
14.51	1.01225326366	-0.405294201273
14.52	0.993210294444	-0.415321519063
14.53	0.964645840621	-0.425110799739
14.54	0.946197964193	-0.434665018763
14.55	0.908112025762	-0.443936568712
14.56	0.898590541154	-0.452970081547
14.57	0.860504602722	-0.461765557266
14.58	0.850983118115	-0.470322995871
14.59	0.831940148899	-0.478737612206
14.6	0.822418664291	-0.487009406272
14.61	0.803375695075	-0.495138378068
14.62	0.774811241252	-0.50302931275
14.63	0.746246787428	-0.510634602893
14.64	0.717682333605	-0.517954248499
14.65	0.698639364389	-0.525035856989
14.66	0.679596395174	-0.531927035786
14.67	0.679596395174	-0.538722999738
14.68	0.65103194135	-0.545376141421
14.69	0.65103194135	-0.551886460834
14.7	0.641510456742	-0.558349172825
14.71	0.623062580315	-0.56467203801
14.72	0.584976641883	-0.570712234121
14.73	0.565933672668	-0.576466785694
14.74	0.565933672668	-0.58212612242
14.75	0.565933672668	-0.587785459147
14.76	0.546890703452	-0.593349581028
14.77	0.527847734236	-0.598723273216
14.78	0.518326249628	-0.603954143136
14.79	0.527847734236	-0.609185013055
14.8	0.508804765021	-0.614368275551
14.81	0.499283280413	-0.619408715778
14.82	0.489761795805	-0.624353941159
14.83	0.470718826589	-0.629156344271
14.84	0.470718826589	-0.633863532537
14.85	0.470718826589	-0.638570720803
14.86	0.461197341981	-0.643230301646
14.87	0.451675857374	-0.647794667643
14.88	0.442154372766	-0.652263818793
14.89	0.432632888158	-0.656637755098
14.9	0.442154372766	-0.661011691403
14.91	0.432632888158	-0.665385627707
14.92	0.42311140355	-0.669664349166
14.93	0.413589918942	-0.673847855778
14.94	0.413589918942	-0.677983754968
14.95	0.42311140355	-0.68216726158
14.96	0.413589918942	-0.686350768193
14.97	0.42311140355	-0.690534274805
14.98	0.404068434334	-0.694670173995
14.99	0.413589918942	-0.698758465761
15	0.394546949727	-0.702799150104
15.01	0.385025465119	-0.706697012178
15.02	0.394546949727	-0.710594874253
15.03	0.394546949727	-0.71454034375
15.04	0.375503980511	-0.718390598401
15.05	0.375503980511	-0.722145638206
15.06	0.33741804208	-0.725710248319
15.07	0.252319773397	-0.728658937397
15.08	0.157104927319	-0.7307060609
15.09	0.0142826582014	-0.731562998828
15.1	-0.137466002736	-0.730947082105
15.11	-0.261245302638	-0.728953525578
15.12	-0.412993963575	-0.725582329247
15.13	-0.5653377173	-0.720690670843
15.14	-0.717086378238	-0.714278550365
15.15	-0.850387162747	-0.70644118266
15.16	-0.945602008826	-0.697461236802
15.17	-0.964644978041	-0.687910001868
15.18	-0.888473101179	-0.678644411472
15.19	-0.907516070394	-0.669664465614
15.2	-0.945602008826	-0.660398875218
15.21	-1.00213582368	-0.650660186055
15.22	-1.04022176212	-0.640448398126
15.23	-1.04022176212	-0.630046180505
15.24	-0.992614339077	-0.619881999999
15.25	-1.04022176212	-0.609717819493
15.26	-1.06878621594	-0.599172779603
15.27	-1.10687215437	-0.588294487751
15.28	-1.10687215437	-0.577225766208
15.29	-1.1449580928	-0.565966614972
15.3	-1.18304403123	-0.554326604352
15.31	-1.19256551584	-0.542448556616
15.32	-1.2592159081	-0.530189649497
15.33	-1.33479269217	-0.517219606495
15.34	-1.38240011521	-0.503633642458
15.35	-1.43952902286	-0.489523996768
15.36	-1.4871364459	-0.474890669424
15.37	-1.53474386894	-0.45978126785
15.38	-1.58235129197	-0.444195792045
15.39	-1.62995871501	-0.428134242011
15.4	-1.73409995291	-0.411313948671
15.41	-1.81979331438	-0.393544482335
15.42	-1.90548667585	-0.374918082383
15.43	-1.92452964507	-0.355768000779
15.44	-1.98106345993	-0.336240035254
15.45	-2.02867088297	-0.316191363539
15.46	-2.01914939836	-0.295952262133
15.47	-2.0667568214	-0.275522731034
15.48	-2.11436424444	-0.254617125705
15.49	-2.09532127522	-0.233568698106
15.5	-2.15245018287	-0.212329840816
15.51	-2.14292869826	-0.19085294641
15.52	-2.14292869826	-0.169423659428
15.53	-2.17149315208	-0.147851550176
15.54	-2.17149315208	-0.126136618655
15.55	-2.17149315208	-0.104421687134
15.56	-2.17149315208	-0.0827067556135
15.57	-2.20005760591	-0.0608490018236
15.58	-2.15245018287	-0.0390864628797
15.59	-2.16197166748	-0.0175143536279
15.6	-2.25718651355	0.0045814372772
15.61	-2.16197166748	0.0266772281824
15.62	-2.18101463669	0.0483921597032
15.63	-2.14292869826	0.070011876378
15.64	-2.10484275983	0.0912507336684
15.65	-2.08579979061	0.112203946421
15.66	-2.08579979061	0.133061944327
15.67	-2.05723533679	0.153777119964
15.68	-2.08579979061	0.174492295601
15.69	-2.07627830601	0.195302686084
15.7	-2.09532127522	0.21616068399
15.71	-2.10484275983	0.237161504165
15.72	-2.08579979061	0.258114716917
15.73	-2.04771385218	0.278782285131
15.74	-2.00962791375	0.299068993961
15.75	-2.01914939836	0.319212880522
15.76	-1.97154197532	0.33916633739
15.77	-1.93405112968	0.358694302915
15.78	-1.94357261428	0.378082421635
15.79	-1.97154197532	0.397657994583
15.8	-2.00010642914	0.417516236605
15.81	-2.03819236757	0.437707730589
15.82	-1.99058494453	0.457851617149
15.83	-2.00010642914	0.477805074017
15.84	-2.00010642914	0.497806138309
15.85	-1.98106345993	0.517711987754
15.86	-2.01914939836	0.537713052046
15.87	-2.04771385218	0.558047368298
15.88	-2.08579979061	0.578714936512
15.89	-2.07627830601	0.599525326995
15.9	-2.09532127522	0.620383324902
15.91	-2.05723533679	0.641146107962
15.92	-2.07627830601	0.661813676176
15.93	-2.0667568214	0.682528851813
15.94	-2.07627830601	0.70324402745
15.95	-2.05723533679	0.723911595664
15.96	-2.05723533679	0.744483949032
15.97	-2.03819236757	0.764961087553
15.98	-2.02867088297	0.785295403806
15.99	-1.99058494453	0.805391682944
16	-1.96202049071	0.82515471012
16.01	-1.99058494453	0.844917737296
16.02	-1.96202049071	0.864680764472
16.03	-1.90548667585	0.884018300305
16.04	-1.91500816046	0.903120774487
16.05	-1.88644370664	0.922128033822
16.06	-1.86740073742	0.940897256042
16.07	-1.84835776821	0.959476048571
16.08	-1.85787925281	0.978007233676
16.09	-1.81027182977	0.996347989089
16.1	-1.76266440673	1.01421267027
16.11	-1.76266440673	1.03183931434
16.12	-1.78170737595	1.04956117325
16.13	-1.75314292213	1.06723542474
16.14	-1.75314292213	1.08476685396
16.15	-1.73409995291	1.10220306834
16.16	-1.74362143752	1.11959167529
16.17	-1.65792807605	1.13659942286
16.18	-1.63888510683	1.15308348877
16.19	-1.63888510683	1.16947233984
16.2	-1.54426535354	1.18538809214
16.21	-1.52522238433	1.20073553083
16.22	-1.43952902286	1.21555928787
16.23	-1.41096456903	1.22981175583
16.24	-1.35383566139	1.24363575698
16.25	-1.2592159081	1.25670101483
16.26	-1.18304403123	1.26891231452
16.27	-1.09735066976	1.28031428803
16.28	-0.92655903961	1.29043383658
16.29	-0.745650832061	1.29879488593
16.3	-0.470122871222	1.30487375445
16.31	-0.204116394991	1.30824495078
16.32	0.0999760196719	1.30876565266
16.33	0.42311140355	1.30615021554
16.34	0.793854210468	1.30006538747
16.35	1.09794662513	1.29060638329
16.36	1.32586716293	1.27848731435
16.37	1.43060349362	1.26470496107
16.38	1.61091660838	1.24949736056
16.39	1.65852403142	1.23315015736
16.4	1.78230333132	1.21594602055
16.41	1.82038926975	1.19793255754
16.42	1.93464708504	1.17915737577
16.43	2.00070238451	1.15948062842
16.44	1.9911808999	1.139521212
16.45	1.98165941529	1.11965701042
16.46	2.01974535373	1.09964998658
16.47	2.03878832294	1.07935731819
16.48	2.03878832294	1.05896943497
16.49	2.00070238451	1.03877198143
16.5	2.04830980755	1.01852692047
16.51	2.01022386912	0.998234252085
16.52	1.96261644608	0.978370050509
16.53	2.01022386912	0.958505848933
16.54	1.97213793069	0.938594039934
16.55	1.96261644608	0.91892026805
16.56	1.95309496147	0.899341711012
16.57	1.95309496147	0.879810761397
16.58	1.96261644608	0.860232204359
16.59	1.96261644608	0.840606039899
16.6	1.90608263122	0.821262544512
16.61	1.91560411583	0.802154110777
16.62	1.96261644608	0.782763007967
16.63	1.97213793069	0.763089236084
16.64	1.83943223896	0.744031385235
16.65	1.86799669279	0.725494240577
16.66	1.84895372357	0.706909488495
16.67	1.81086778514	0.688610380951
16.68	1.79182481593	0.670596917946
16.69	1.77278184671	0.652773884633
16.7	1.74421739289	0.635188888435
16.71	1.81086778514	0.617413462544
16.72	1.7632603621	0.599542821808
16.73	1.70613145446	0.582195862725
16.74	1.71565293906	0.565086940758
16.75	1.71565293906	0.547930411367
16.76	1.66804551602	0.531011919092
16.77	1.67756700063	0.514283856509
16.78	1.64900254681	0.497651008771
16.79	1.65852403142	0.48111337588
16.8	1.6394810622	0.464623350412
16.81	1.65852403142	0.448133324944
16.82	1.59246873195	0.431878361127
16.83	1.62995957759	0.41576621958
16.84	1.58294724734	0.399701685455
16.85	1.56390427813	0.383967427828
16.86	1.59246873195	0.368185562777
16.87	1.50677537048	0.352689342265
16.88	1.48773240126	0.337716803406
16.89	1.47821091666	0.322887086817
16.9	1.45916794744	0.308200192496
16.91	1.43060349362	0.293751335291
16.92	1.39251755518	0.279635730047
16.93	1.31634567832	0.266091413879
16.94	1.27885483268	0.253115411324
16.95	1.20268295582	0.240707722382
16.96	1.12651107895	0.229061752208
16.97	1.04081771748	0.218225108226
16.98	0.946197964193	0.208290029818
16.99	0.850983118115	0.199304124406
17	0.78433272586	0.191127545186
17.01	0.670074910566	0.183855507004
17.02	0.584976641883	0.177580249242
17.03	0.527847734236	0.172016127361
17.04	0.480240311197	0.166975687134
17.05	0.42311140355	0.16245892856
17.06	0.375503980511	0.15846585164
17.07	0.327896557472	0.15494884895
17.08	0.290405711828	0.151857337604
17.09	0.252319773397	0.149143710177
17.1	0.223755319574	0.146763334713
17.11	0.185669381142	0.144716211209
17.12	0.176147896535	0.142907124821
17.13	0.138061958103	0.141336075547
17.14	0.0999760196719	0.140145885659
17.15	0.0714115658484	0.139288947731
17.16	0.0333256274171	0.138765261765
17.17	-0.0136867028341	0.138667067142
17.18	-0.0422511566576	0.138946756439
17.19	-0.0898585796967	0.139607305121
17.2	-0.11842303352	0.140648713187
17.21	-0.185073425775	0.142166195483
17.22	-0.289809756461	0.144540611395
17.23	-0.432036932791	0.148149844841
17.24	-0.631988109555	0.153469970053
17.25	-0.831344193532	0.160786631568
17.26	-0.992614339077	0.169906424231
17.27	-1.15447957741	0.180641893814
17.28	-1.21160848506	0.192472334126
17.29	-1.35383566139	0.205299554858
17.3	-1.53474386894	0.21974245251
17.31	-1.6109157458	0.235470750583
17.32	-1.76266440673	0.252338651346
17.33	-1.81027182977	0.270203332529
17.34	-1.82931479899	0.288401265672
17.35	-1.86740073742	0.306884843354
17.36	-1.86740073742	0.325558850729
17.37	-1.87692222203	0.344280465526
17.38	-1.87692222203	0.363049687746
17.39	-1.8388362836	0.381628480274
17.4	-1.8388362836	0.40001684311
17.41	-1.81979331438	0.4183099911
17.42	-1.80075034517	0.436412709398
17.43	-1.81027182977	0.454467820273
17.44	-1.81027182977	0.47257053857
17.45	-1.77218589134	0.490482827176
17.46	-1.76266440673	0.508157078666
17.47	-1.8388362836	0.526164582118
17.48	-1.82931479899	0.544505337531
17.49	-1.90548667585	0.563179344905
17.5	-1.90548667585	0.582234211664
17.51	-1.90548667585	0.601289078422
17.52	-1.94357261428	0.620534374873
17.53	-1.95309409889	0.640017708439
17.54	-1.96202049071	0.659593281387
17.55	-1.96202049071	0.679213486294
17.56	-1.99058494453	0.69897651347
17.57	-2.00962791375	0.718977577761
17.58	-2.01914939836	0.739121464322
17.59	-2.01914939836	0.759312958305
17.6	-2.00962791375	0.779456844866
17.61	-2.02867088297	0.79964833885
17.62	-2.00010642914	0.81979222541
17.63	-2.01914939836	0.839888504548
17.64	-2.01914939836	0.860079998531
17.65	-1.94357261428	0.879893608594
17.66	-1.92452964507	0.899234119891
17.67	-1.94357261428	0.918574631188
17.68	-1.90548667585	0.937819927639
17.69	-1.95309409889	0.957112831512
17.7	-1.93405112968	0.976548557655
17.71	-1.86740073742	0.995555816991
17.72	-1.85787925281	1.01418221694
17.73	-1.81979331438	1.03257057978
17.74	-1.81027182977	1.0507209055
17.75	-1.8388362836	1.06896644607
17.76	-1.82931479899	1.08730720148
17.77	-1.81027182977	1.10550513462
17.78	-1.79122886056	1.12351263807
17.79	-1.79122886056	1.14142492668
17.8	-1.80075034517	1.15938482271
17.81	-1.74362143752	1.17710668162
17.82	-1.70553549909	1.1943524663
17.83	-1.69601401448	1.21136021387
17.84	-1.64840659144	1.2280823169
17.85	-1.63888510683	1.24451877539
17.86	-1.57282980737	1.26057734996
17.87	-1.53474386894	1.27611521835
17.88	-1.52522238433	1.29141504961
17.89	-1.47761496129	1.30642923634
17.9	-1.41096456903	1.32087213399
17.91	-1.35383566139	1.33469613514
17.92	-1.2687373927	1.34780900041
17.93	-1.20208700045	1.36016312238
17.94	-1.08782918515	1.37161270331
17.95	-0.945602008826	1.38177985928
17.96	-0.764693801277	1.39033133833
17.97	-0.555816232692	1.3969338885
17.98	-0.299331241069	1.40120962587
17.99	-0.0136867028341	1.40277471559
18	0.280884227221	1.40143872796
18.01	0.565933672668	1.39720463847
18.02	0.822418664291	1.39026287678
18.03	1.00273177905	1.38113712456
18.04	1.13603256356	1.37044330285
18.05	1.23124740964	1.35860690298
18.06	1.39251755518	1.34548807816
18.07	1.46868943205	1.33118204322
18.08	1.57342576273	1.31597146725
18.09	1.65852403142	1.29981171828
18.1	1.78230333132	1.28260758147
18.11	1.82038926975	1.26459411846
18.12	1.84895372357	1.24624740349
18.13	1.83943223896	1.22780547368
18.14	1.93464708504	1.20893507706
18.15	1.98165941529	1.18935354456
18.16	2.01974535373	1.16934652071
18.17	2.00070238451	1.14924428202
18.18	2.01974535373	1.12914204333
18.19	2.01022386912	1.10899219722
18.2	2.01974535373	1.0888423511
18.21	2.04830980755	1.0685020753
18.22	2.07687426137	1.04787615495
18.23	2.00070238451	1.02748827172
18.24	2.06735277676	1.00714799592
18.25	2.01974535373	0.986712505265
18.26	1.97213793069	0.966753088843
18.27	1.98165941529	0.946984102113
18.28	1.98165941529	0.92716750796
18.29	1.98165941529	0.907350913807
18.3	2.01022386912	0.887391497385
18.31	2.00070238451	0.867336866117
18.32	1.98165941529	0.847425057118
18.33	2.00070238451	0.827513248119
18.34	2.01022386912	0.807458616851
18.35	1.91560411583	0.787829476926
18.36	1.94357347686	0.768533588962
18.37	1.92512560044	0.749190093576
18.38	1.86799669279	0.73022448211
18.39	1.89656114661	0.711401692913
18.4	1.89656114661	0.692436081447
18.41	1.8775181774	0.673565684827
18.42	1.90608263122	0.654647680784
18.43	1.86799669279	0.635777284164
18.44	1.86799669279	0.617097317236
18.45	1.85847520818	0.598464957731
18.46	1.91560411583	0.579594561111
18.47	1.84895372357	0.560771771914
18.48	1.85847520818	0.542234627255
18.49	1.89656114661	0.523459445481
18.5	1.86799669279	0.504636656284
18.51	1.85847520818	0.486004296779
18.52	1.83943223896	0.467514759543
18.53	1.82038926975	0.449215652
18.54	1.887039662	0.430678507341
18.55	1.83943223896	0.412046147836
18.56	1.78230333132	0.393937469985
18.57	1.72517442367	0.37640008121
18.58	1.71565293906	0.359195944396
18.59	1.70613145446	0.342087022429
18.6	1.64900254681	0.325311352422
18.61	1.62043809298	0.308964149223
18.62	1.56390427813	0.293042437368
18.63	1.54486130891	0.277498609433
18.64	1.52581833969	0.26214521119
18.65	1.47821091666	0.247125064908
18.66	1.52581833969	0.232104918626
18.67	1.47821091666	0.217084772344
18.68	1.48773240126	0.202255055755
18.69	1.47821091666	0.187425339165
18.7	1.45916794744	0.172738444845
18.71	1.44012497822	0.158241980216
18.72	1.43060349362	0.143888337857
18.73	1.44012497822	0.129534695498
18.74	1.42108200901	0.115228660562
18.75	1.39251755518	0.101160662741
18.76	1.40203903979	0.0871878797661
18.77	1.39251755518	0.0732150967913
18.78	1.38299607058	0.0593375286625
18.79	1.35443161675	0.0456503902258
18.8	1.33538864754	0.0322012889044
18.81	1.32586716293	0.018895009852
18.82	1.27885483268	0.00587139987397
18.83	1.25029037886	-0.00677432618372
18.84	1.20268295582	-0.0190391928571
18.85	1.15507553278	-0.0308279853001
18.86	1.08842514052	-0.0420454886666
18.87	1.03129623288	-0.0526440955336
18.88	0.983688809836	-0.0627190207472
18.89	0.936676479585	-0.0723208471943
18.9	0.87002608733	-0.0813543600289
18.91	0.812897179683	-0.0897689763639
18.92	0.774811241252	-0.0977075184686
18.93	0.670074910566	-0.104931949228
18.94	0.604019611099	-0.111302421836
18.95	0.527847734236	-0.116961758563
18.96	0.451675857374	-0.121859376521
18.97	0.385025465119	-0.126042883133
18.98	0.309448681044	-0.129515253864
18.99	0.223755319574	-0.132181273867
19	0.0999760196719	-0.133799930563
19.01	-0.0232081874419	-0.134183769725
19.02	-0.166030456559	-0.133237576505
19.03	-0.270766787246	-0.131053590285
19.04	-0.336822086712	-0.128015645916
19.05	-0.355865055928	-0.124552210202
19.06	-0.355865055928	-0.120993559643
19.07	-0.327895694893	-0.117574755889
19.08	-0.308852725677	-0.114391013786
19.09	-0.280288271853	-0.111445308799
19.1	-0.270766787246	-0.108690033503
19.11	-0.270766787246	-0.105982365631
19.12	-0.261245302638	-0.103322305181
19.13	-0.261245302638	-0.100709852155
19.14	-0.25172381803	-0.0981450065515
19.15	-0.242202333422	-0.0956753757943
19.16	-0.25172381803	-0.093205745037
19.17	-0.232680848814	-0.0907837217028
19.18	-0.223159364206	-0.0885045206377
19.19	-0.204116394991	-0.0863681418417
19.2	-0.194594910383	-0.0843745853148
19.21	-0.175551941167	-0.0825238510571
19.22	-0.166030456559	-0.0808159390684
19.23	-0.146987487344	-0.0792508493489
19.24	-0.127944518128	-0.0778761893216
19.25	-0.127944518128	-0.0765967441403
19.26	-0.11842303352	-0.075364906382
19.27	-0.0993800643046	-0.0742758908929
19.28	-0.0993800643046	-0.0732820902499
19.29	-0.0993800643046	-0.0722882896068
19.3	-0.108901548912	-0.0712468815407
19.31	-0.11842303352	-0.0701102586286
19.32	-0.11842303352	-0.0689260282934
19.33	-0.11842303352	-0.0677417979582
19.34	-0.127944518128	-0.0665099601999
19.35	-0.11842303352	-0.0652781224417
19.36	-0.127944518128	-0.0640462846835
19.37	-0.146987487344	-0.0626716246561
19.38	-0.166030456559	-0.0611065349366
19.39	-0.175551941167	-0.059398622948
19.4	-0.175551941167	-0.0576431035363
19.41	-0.166030456559	-0.0559351915477
19.42	-0.156508971952	-0.0543224944051
19.43	-0.156508971952	-0.0527574046856
19.44	-0.166030456559	-0.051144707543
19.45	-0.185073425775	-0.0493891881314
19.46	-0.232680848814	-0.0473004167584
19.47	-0.232680848814	-0.0449736082703
19.48	-0.223159364206	-0.0426944072052
19.49	-0.204116394991	-0.0405580284092
19.5	-0.204116394991	-0.0385168644593
19.51	-0.166030456559	-0.0366661302015
19.52	-0.146987487344	-0.035101040482
19.53	-0.137466002736	-0.0336787730316
19.54	-0.127944518128	-0.0323517204273
19.55	-0.11842303352	-0.0311198826691
19.56	-0.127944518128	-0.0298880449108
19.57	-0.127944518128	-0.0286085997295
19.58	-0.127944518128	-0.0273291545483
19.59	-0.127944518128	-0.026049709367
19.6	-0.127944518128	-0.0247702641857
19.61	-0.127944518128	-0.0234908190044
19.62	-0.127944518128	-0.0222113738231
19.63	-0.127944518128	-0.0209319286419
19.64	-0.127944518128	-0.0196524834606
19.65	-0.127944518128	-0.0183730382793
19.66	-0.11842303352	-0.0171412005211
19.67	-0.108901548912	-0.0160045776089
19.68	-0.0993800643046	-0.0149631695428
19.69	-0.0898585796967	-0.0140169763228
19.7	-0.0803370950889	-0.0131659979489
19.71	-0.0803370950889	-0.012362626998
19.72	-0.0803370950889	-0.0115592560471
19.73	-0.0803370950889	-0.0107558850962
19.74	-0.0898585796967	-0.00990490672228
19.75	-0.108901548912	-0.00891110607924
19.76	-0.11842303352	-0.00777448316708
19.77	-0.127944518128	-0.00654264540884
19.78	-0.127944518128	-0.00526320022756
19.79	-0.137466002736	-0.00393614762324
19.8	-0.127944518128	-0.00260909501892
19.81	-0.137466002736	-0.0012820424146
19.82	-0.156508971952	0.000187832458839
19.83	-0.166030456559	0.00180052960139
19.84	-0.185073425775	0.00355604901306
19.85	-0.175551941167	0.00535917584777
19.86	-0.146987487344	0.00697187299033
19.87	-0.137466002736	0.00839414044073
19.88	-0.146987487344	0.00981640789113
19.89	-0.175551941167	0.0114291050337
19.9	-0.204116394991	0.0133274467145
19.91	-0.213637879599	0.0154162180874
19.92	-0.213637879599	0.0175525968834
19.93	-0.204116394991	0.0196413682564
19.94	-0.194594910383	0.0216349247832
19.95	-0.166030456559	0.0234380516179
19.96	-0.156508971952	0.0250507487605
19.97	-0.137466002736	0.0265206236339
19.98	-0.127944518128	0.0278476762383
19.99	-0.127944518128	0.0291271214195
20	-0.137466002736	0.0304541740239
